0
289
295
605
602
600
598
597
596
596.5
597.5
587.5
603.5
596
601
606
609.5
613.5
617.5
621
623.5
626.5
628
630
629.5
629.5
628
625.5
621.5
617
612.5
607
601.5
595.5
590
584.5
579.5
575
572.5
569.5
567.5
566
565
564
562.5
561.5
560.5
559.5
558
556.5
556.5
555.5
555.5
555.5
556.5
557
558
558.5
560
560.5
561
561.5
563
564
564.5
566
567
568
568
568.5
568.5
569
569
569
570
570
570
570
570.5
570.5
571
572
573
574
574.5
575.5
577
578
579
580.5
581.5
583
583.5
584.5
586
587.5
589
591.5
593.5
595.5
596.5
597.5
598
598.5
598
598.5
599
599.5
600
601
602
603
604
605
607
607.5
608.5
608.5
608.5
608
607.5
607
607.5
607
607.5
607.5
608
608
607.5
608
608
608
608.5
609.5
610.5
612.5
614
616
618.5
619
620.5
619.5
619.5
617
615
612
609
605
601.5
598.5
595.5
594
592
592
591.5
591.5
591
591
591
591
591
591
591.5
591
591
592
593
597.5
602.5
614
625.5
638.5
651
656.5
660.5
653.5
644.5
630.5
615.5
604
592.5
587.5
583.5
582.5
582.5
582.5
583
583
582.5
582.5
582
581
580
579
578.5
577.5
577.5
577
577
576.5
576
575.5
574.5
573.5
572
571.5
571.5
572
573.5
576
579
582
585.5
588.5
591.5
594
595.5
597.5
599
600
601
602
602.5
602.5
602.5
602
602
600.5
599
596
593.5
589
584.5
580
574.5
570.5
565.5
563
560
558.5
556.5
556
555
554.5
554
554
553.5
553
552.5
551.5
551.5
550.5
550.5
550.5
551
550.5
550.5
550
550
549
548.5
547.5
546.5
545.5
544
543.5
543
542.5
542.5
542.5
543
543
543
543.5
544
544
544.5
546
547
548.5
549.5
551
552.5
553
554
555
556
556
556.5
556
556
555.5
555.5
556
556.5
557
557.5
559
559.5
560
560.5
560.5
561.5
561
561.5
562
562.5
563
563.5
565
566
567
568
569.5
570
570.5
571
571
571.5
570
569
568
567
565.5
565.5
565.5
566
566.5
567
568.5
569.5
571
573.5
577
581
584.5
589
593
597
599
601
602
601.5
600
597.5
594.5
590.5
586
581.5
578.5
575.5
574
573
574
575
575.5
577
577.5
578.5
578
578
578.5
578
577.5
577
578
580.5
586.5
597.5
613.5
632.5
652.5
669.5
680.5
682.5
673
657.5
635
612.5
591.5
575
565
559
557.5
557.5
560
562
563.5
565.5
567
569
570
572
573.5
575
575.5
576.5
577
577.5
577.5
578
579
579.5
580
580.5
581.5
582.5
584
586.5
590
594
598
602.5
607.5
611.5
615.5
619.5
623.5
627.5
630
633.5
635.5
637.5
638
638.5
638.5
637.5
636
634
632
629
626.5
623
620.5
616
612.5
608
604
600
597
595
594
593.5
593.5
594
594.5
595
595
596
596.5
597
597
597.5
597.5
597.5
597.5
597.5
598
598
598.5
598.5
599
598.5
598.5
598
598
597
596.5
595.5
595
594
593
592
591
590
588.5
588.5
587.5
587.5
587
587.5
588
588
588.5
588
588
587
586
585.5
584.5
584.5
583.5
584
583.5
583.5
583.5
583
583.5
582.5
582.5
581.5
581.5
580
579.5
578.5
578.5
578
578
578.5
579.5
579.5
580.5
580.5
581
581
581
581.5
582
582.5
583
583.5
584
584
584
584
583.5
583
582
581.5
581
581
581
582
583.5
585
586.5
589
590.5
592.5
593.5
594.5
594.5
593
591
588
585
581.5
578
575
572.5
570
568
566.5
565
564
563
562
561.5
560.5
559.5
559
558
557
556
555.5
555.5
557.5
560.5
570
579.5
593.5
607.5
618.5
628
626.5
623
609.5
596
581
567
558.5
551.5
549
547.5
547.5
548
547.5
547
546
545.5
544.5
544
544.5
544.5
545
545.5
547
548
549
550
550.5
551.5
551.5
552
553.5
555
557
559.5
563
566.5
570
573.5
577.5
581.5
584.5
588
591
593.5
595.5
597.5
599.5
601
601.5
602.5
602.5
603
601.5
600
597.5
595
591
587.5
583
579
574
569
565
560.5
557.5
555
554
554
553.5
554
555
555
555.5
556
556.5
557.5
556.5
556.5
556
555.5
554.5
554
554.5
555
556
556.5
558
558.5
559
559.5
560.5
561
561.5
562
563
563.5
564
565
567
568.5
570
571.5
573.5
575
576
577
578
578.5
578
578
577.5
577
576
575.5
575.5
575.5
575
575
574.5
574
572.5
572
571.5
571.5
571.5
572
573
573.5
573.5
574
574
574.5
573.5
573.5
574
574
574
574
575
575
575.5
576
576.5
577
576.5
577
576.5
577
576
576.5
576
576
576
576.5
578
579
581
582.5
586
589.5
593.5
598.5
604
609
613
616
618.5
619
618
617
614.5
612.5
609.5
608
606
605
603.5
603
602
601.5
601
601
601.5
601.5
602
602.5
603.5
604.5
605
606
606.5
608
609.5
615.5
622.5
633.5
645
656.5
667
668.5
669.5
659.5
650
636
622.5
612.5
603.5
599.5
596
595.5
595
595.5
595.5
596.5
596.5
596.5
596.5
596.5
596.5
596.5
596.5
596.5
597
597
596.5
597
596.5
596.5
596
596.5
597
598
599
600.5
602.5
604
606.5
608.5
611
612.5
614
615
616.5
617
618
618.5
619.5
619.5
620
619.5
619
617.5
616
614
612
608.5
605.5
602
598.5
595
591
587.5
584
581
578
576
573.5
572
570
569
568.5
567.5
567.5
567
567
566.5
566
566
566
566
566
566
566
565.5
565
564.5
564.5
564
564
564.5
565.5
566
567
567.5
568
567.5
567.5
567
567
566.5
566
566
565.5
566
565.5
566
565.5
565
564
563.5
563
562.5
562
562
561.5
561
560.5
560
560
559.5
559.5
559.5
560
560
559.5
559.5
558.5
558
557
556.5
556.5
556
555.5
556
555.5
556
556
556.5
557
557
556.5
556.5
556
555.5
555.5
555.5
556.5
556
557
557
557.5
557.5
557.5
557.5
558
557.5
557.5
558.5
559
561.5
563.5
568
572
575.5
580
582
584.5
583.5
582.5
580.5
578
575
572.5
570.5
569.5
568
567.5
567
567.5
567
567.5
567.5
568
567
567
567
567
567.5
567.5
568
568
569
571.5
579
588.5
603
619.5
636
650
655
655.5
645.5
632.5
614
596.5
582.5
570.5
564.5
560
559.5
559.5
559.5
560.5
560
560.5
560
560
560.5
561
560.5
561.5
561.5
562
561
560.5
560
559
558.5
557.5
559
559.5
562
565
570
575
580.5
586
592.5
597.5
603
607.5
612.5
617
621
625.5
629.5
633
634.5
636
636
634.5
632.5
629
626.5
622
617
611
604.5
597.5
589.5
582.5
576
570.5
566
562
560.5
558
557.5
556.5
557.5
557.5
558.5
559.5
561
562.5
563.5
565
566.5
568
569
570.5
572
573.5
574.5
576
577
578
578
579
579.5
580
580
580.5
581
581
581.5
581
582
582
582.5
584
585.5
587.5
589
590.5
592.5
593
594
594.5
595.5
596
596.5
596.5
597.5
597.5
598
598.5
599.5
600.5
601
602.5
603
604
604
604.5
604
604
603
603
602.5
602.5
601.5
601.5
601
600.5
600
599.5
599
598.5
597.5
598
597.5
598
598
598.5
599
598.5
598.5
598
597.5
597.5
596.5
597
597
597
597.5
598
599.5
601
603
605.5
608
609.5
611.5
612
613.5
612.5
612.5
611
609.5
607.5
604.5
602
599.5
597
595
594
593
592.5
592
591.5
591
590
589.5
589
589
588.5
588
587.5
587
587
587
590.5
594
603
612
624
636
642.5
648.5
644
638.5
625.5
612
600
587.5
581.5
574.5
573.5
572
571.5
571.5
570.5
570
569
568.5
568
568
567.5
567.5
567
567
566.5
565.5
565.5
565
565
565
566
566.5
567.5
568
569
570.5
572
573.5
576
578
580
582.5
584.5
587
589
590.5
592.5
594
594.5
595
595
594.5
593.5
592.5
590.5
589
586
583
580
576
572.5
568
564.5
560.5
557.5
553.5
551.5
549
547.5
546.5
546
546.5
546.5
547
547.5
548
547.5
547.5
546.5
546.5
545.5
544.5
544
543.5
542.5
542.5
542.5
543
543
544
544.5
546
546.5
548
549.5
551
551.5
552
552
552
551.5
551
551
551
551
551.5
552.5
553
554
554.5
555.5
556.5
556.5
557
557
557.5
557.5
558
559.5
560.5
562
563
565
566.5
567.5
569
570.5
572
572.5
573
573.5
573.5
573.5
573.5
574.5
575.5
575.5
577
577
578
577
577
577
577
576.5
577
577
577
576
574.5
573.5
571.5
570.5
569.5
570
570
570.5
570.5
572.5
573.5
576.5
579.5
584.5
589
593
597
600.5
602.5
603.5
603.5
602.5
601
597
594
589.5
586
582
579
577.5
576
575.5
575.5
576.5
577
577
577.5
577.5
577.5
576.5
575.5
575
574
574.5
576.5
583.5
593
608.5
627.5
649
669
683
690
686
674
653.5
631
609.5
591
578.5
570.5
568
567.5
568.5
570
571.5
573
573.5
575
576
577.5
578
579
580
580
580
580
579.5
579.5
579.5
579.5
581
581
582
583
585
587.5
590.5
594.5
599.5
605
609.5
615
620
624
627.5
630
633
634
635.5
635.5
636.5
636
636
635.5
635
633.5
632
629.5
627
623.5
619.5
616
611.5
607
602.5
598.5
595
593
591
591
591
591.5
591.5
592
592
591.5
591
590.5
590.5
590
590
590.5
590.5
591
591
591.5
592
592
592.5
592
592.5
592
592
592
592
592
591.5
592
592
592
592
592
592
591
590.5
589.5
589
588.5
587.5
588
587.5
588
587.5
587.5
587
586.5
586
585.5
585.5
584.5
584.5
583.5
583
582
581
581
581
581.5
582
583
583.5
583.5
583
582
581
580
578.5
578.5
578
578
578
578.5
579
579.5
580
580.5
581
580.5
580.5
579.5
579.5
578.5
578
578
578
578.5
579
580
581
582
583
584
585.5
586
587
588
588.5
589.5
589.5
589.5
589.5
587
585.5
582
579
576
572.5
571
568.5
568
566.5
566.5
566.5
566
566.5
566.5
567
566.5
566.5
565
564.5
562.5
561
561.5
562.5
568.5
576.5
589.5
604.5
616.5
629
631
631
619.5
606.5
590
574.5
563
553
549.5
546.5
546.5
546.5
546.5
547.5
547
547
547
547
546.5
546
546
545.5
545
545
544.5
545
545
545.5
547
548
549
550
551.5
553.5
555.5
558.5
562.5
566
570.5
574.5
579.5
584
587.5
591.5
594.5
597.5
599
600.5
601
601.5
600.5
600
599.5
598.5
597
595
592.5
590
586
581.5
577
571.5
566
561
557
553.5
552
551
552
554
555.5
558
559.5
561
560.5
560.5
560
559.5
559
558.5
559.5
559
559
559
559.5
560
560.5
561
562.5
563
563.5
563.5
563.5
563.5
562.5
563
563
564
564
564.5
565.5
566
566
567
567
567.5
567
567
567.5
567.5
567.5
568
569
570
570
570.5
570.5
570.5
569.5
568.5
568
567
566.5
566.5
567
568
568
569.5
570.5
571.5
571.5
571.5
571.5
570.5
570
569
569.5
570
570.5
572
573.5
575
576
577.5
579
580.5
580.5
581.5
581
581
580
579.5
580
580
581
581.5
583.5
584.5
586
588
590.5
593
596.5
599.5
604
606.5
609
610
610.5
610
609
607.5
606
604
601
599
597
595.5
594.5
595
595.5
597
598.5
600
602
602.5
603.5
603
603.5
602.5
601.5
601.5
602
605.5
612
624
638.5
654
669
677
681.5
674
663.5
647
631
618
606.5
602
598.5
599
599
600
600.5
601
601
601.5
602
601.5
601.5
601
600.5
600.5
600
600.5
601
601
601.5
601.5
602.5
602.5
603
603.5
604.5
605.5
606.5
608.5
610
612
613.5
616
618
619.5
621.5
622.5
624
624.5
625
625
625
624.5
623.5
622.5
621
619
616.5
614
610.5
606.5
602.5
598
593.5
589
584.5
580.5
577
574.5
571.5
570.5
568.5
568
566.5
566.5
566
565.5
565.5
565.5
565.5
565.5
565.5
565
565.5
565
564.5
565
564.5
565
564.5
565.5
566
566.5
567.5
568.5
569.5
570.5
571
572
572.5
573
573
573
573
572.5
572
572
572
572
572
572
572.5
572
572
571.5
571
570
569
568.5
568
567.5
567.5
567.5
567.5
567.5
566.5
566.5
565.5
565
564
563.5
563
562.5
562
562
561.5
561.5
561
561
561
560.5
559.5
559
558
557
556
555.5
554.5
554
553
553
553
552.5
552.5
552
552.5
552
552
552
552.5
552.5
553.5
555
557
559.5
562.5
566
569.5
571.5
574
574
574.5
572
570.5
567.5
565
562
559
557
555.5
554.5
554
555.5
556.5
558
559.5
560.5
562
562
562.5
562.5
562.5
562
562.5
564.5
566.5
572.5
580.5
595
610.5
627.5
643.5
652
656.5
648
636
618
599.5
584.5
571.5
566
563
562.5
563.5
564
565
564
564
563.5
563.5
563
563.5
563.5
564
563.5
564
564
564.5
564
564
564
563
562
560.5
561
561
563
565.5
570.5
575
580.5
586
591.5
597
601
606
610
613.5
615.5
617
618.5
619
619.5
620
621
621.5
620.5
619.5
616.5
613.5
608
602.5
596.5
590
583
577
571.5
566.5
562.5
559.5
558
557
556.5
556.5
557
558
557.5
558.5
558.5
558.5
558.5
558.5
560
561.5
563
565
567
569
570
571.5
572.5
572.5
572.5
572.5
572.5
573
573
574
575.5
577
578.5
580
581
581.5
581
580.5
579.5
578.5
577.5
577.5
578.5
580
581
583.5
584.5
586.5
587
588
588.5
589
588.5
589.5
590
591
591.5
593
594
595.5
596
597
598
598.5
598.5
599
599
599.5
599.5
599.5
600
600
600
600.5
601
601.5
602
602.5
603
603
603.5
603.5
604.5
604
604
604
604
604
604
604.5
605
605.5
606.5
607.5
609.5
611
613
615.5
617.5
619.5
620.5
621.5
622
621
620
617.5
615
612
608.5
606
603
600.5
598.5
597.5
596.5
596
595.5
595
595.5
595
595
594.5
594
592.5
591
590
589
591
593
601.5
609.5
621.5
633
641
648
645
641
629
617
605
592.5
586.5
580
578.5
577
577
577
576.5
576.5
576
576
575.5
575
575.5
575.5
576.5
576.5
577.5
578
578
578
577.5
577.5
576.5
576.5
576.5
577
578.5
579.5
582.5
585
588
591
594
597
599.5
602
604
605.5
606.5
606.5
607.5
607.5
607.5
607
606.5
605.5
604
602
599.5
596.5
593
589
584.5
580
575
570
566
561.5
558.5
555
553.5
551.5
551
549.5
549.5
549
548.5
548
548
547.5
547.5
547
547.5
547.5
548
548
548.5
549
549
549
549
548.5
548
547.5
547
547
546.5
546.5
546.5
547.5
547.5
548
548
548
547
546.5
545.5
545.5
544.5
544.5
545.5
546
548
549
551
552.5
553
553.5
553.5
553.5
553
552.5
553
552.5
552.5
552.5
553
553.5
554
554.5
556
557.5
558.5
560
560.5
561
560.5
559.5
559.5
558.5
558.5
558.5
559
560
560.5
561
562.5
563
564
565
566
567
567
567
567.5
567.5
567.5
568
569
570
571
572.5
574.5
576.5
579
581.5
585.5
588.5
591.5
593.5
595.5
596
595
593
590.5
586.5
582.5
578.5
575
572
569
567
566.5
566
566.5
567
568.5
570
571
572.5
574
574.5
574
573.5
573
573.5
576.5
583.5
596.5
612.5
632.5
652
668.5
678.5
677
669.5
651.5
632.5
611
593.5
581.5
573
570
568.5
569.5
570.5
571
571.5
572.5
573
574
574.5
576.5
577.5
578
579
579
579.5
578.5
578.5
578.5
579
579
580
580.5
581
582
584
587.5
592
597
602.5
609
614.5
619
623
626.5
628.5
630.5
631.5
633
633.5
633
632.5
631.5
630
628
625.5
623
619
615
610
605.5
600
595.5
591
587.5
584
582
580
579
578
577
577.5
577.5
578.5
579
580.5
582
583.5
584.5
586
587
588
588
588.5
589
588.5
589
588
588
587.5
587
587
587.5
588
588.5
590
591.5
593
594.5
596
597.5
598.5
599
599
599
598.5
597.5
597.5
597
597
597.5
598
598.5
599
598.5
599
598.5
598.5
598
598
598
597.5
597
597
596.5
597
596.5
597.5
598
598.5
599
599
599
598
597
596
595
594.5
594
594
594.5
594
594
594
593.5
593
592.5
591.5
591.5
590.5
590
589.5
589
589
588.5
589.5
589.5
590
590
590.5
590.5
591.5
592
594
595.5
597
598.5
599
600
599.5
598.5
597.5
595.5
593.5
591
589
586.5
585
582.5
581.5
580.5
579.5
579
579
579
579.5
580
580.5
581
580.5
580.5
580
579.5
580
580
585
590
600.5
610.5
621
630.5
632
632.5
623.5
613.5
600
586.5
576.5
567.5
563
559.5
558
557.5
556.5
556
555.5
554.5
554.5
554
554.5
555.5
555.5
556
556.5
556.5
556.5
556.5
556
556.5
556
556
556.5
557
558
559
560.5
562.5
564.5
566.5
570
572.5
575.5
578.5
580.5
583.5
585
587
589
590.5
592
593
594.5
595
594.5
594
592
590.5
587.5
584
580.5
576.5
572
567.5
563.5
559.5
556.5
553.5
551.5
550
548.5
547.5
547
546.5
546
545.5
546
546
546.5
547
548
549
549.5
550
551
551.5
552.5
553
554
554.5
554.5
554.5
555
555
555.5
556
557.5
559
560.5
561.5
563
563.5
564
564
565
565.5
565.5
566
566.5
566.5
566.5
566
566
566
565.5
565.5
565.5
565.5
565
564.5
564.5
563.5
562.5
562
561.5
561.5
561
561
561
561
560.5
561
561.5
562.5
563
564
565.5
566.5
567
567.5
568
568
567.5
567.5
568
568.5
569.5
570
571.5
572.5
573
574
575
575.5
576
576.5
577.5
578.5
579
580.5
582.5
585
587.5
591.5
595.5
600
603
606
608
609
608.5
608
606.5
604.5
601.5
598
595
591.5
588
585
583
580.5
579.5
578
578
577.5
577.5
577.5
578.5
578.5
579
578.5
579
579
580
584
592.5
604
621.5
639
658
670.5
676.5
673.5
662.5
645.5
625
606.5
590.5
580
574
571
572
572
573
573.5
573.5
574.5
574
575
576
577
578
579
580
581
581
582.5
583
583.5
584
584.5
585.5
587.5
588.5
591.5
594.5
598
602
605.5
610.5
614
617.5
620.5
624
626
628.5
630.5
632.5
634
635
635.5
636
635
634
632.5
630.5
628
625.5
622.5
620
616.5
613.5
610
607
604.5
602
600.5
599.5
598.5
598
598
597.5
597.5
596.5
597
596.5
597
596.5
597.5
597.5
598
597.5
598
597.5
597.5
597.5
597.5
597.5
597.5
596.5
596.5
596
596
596
596
596.5
596
596
595.5
595
594
593
592.5
592
592
592
592.5
593
593
593
592.5
592
591
590
590
589.5
589.5
589
589
588.5
588.5
587.5
587.5
587
587
586.5
587
586.5
586.5
586
585.5
585
585
584.5
585
585.5
585.5
585.5
585.5
585
584.5
584
584
584
584
584
583.5
583.5
582
581
580
579
578.5
578
578
578
577.5
577.5
577.5
577.5
578.5
579
581
582.5
584.5
585.5
586.5
587
586.5
585.5
584.5
582.5
580.5
577.5
575.5
573
571
569.5
568
567
566
565
564
563.5
562.5
562
562
562
562
562
562
562
562
562.5
566
569.5
578.5
587.5
599.5
611.5
618
624
619.5
614.5
601.5
588
576
564
557.5
551.5
550
549.5
549.5
550.5
550.5
551
550.5
550.5
550
550
550
549.5
550
550
549.5
549
548.5
548
547.5
547.5
548
549.5
550.5
553
555.5
559
561.5
565
568.5
572
575
578.5
581
584
585.5
587.5
589
590.5
591
592.5
593
594
594
594
593
592
588.5
585
581
577
573.5
570
567.5
565
563
560.5
559
557
555.5
553.5
553
551.5
551
550
550
549.5
549
549
550
551
551.5
553
554
555
555
555.5
555.5
555.5
555
555
555
556
556.5
557.5
559.5
561
562
563
563.5
563.5
563
562.5
562.5
562
562
562
563
563
563.5
564
565
566
566.5
567
567.5
567.5
566.5
565.5
565.5
565
565.5
566.5
568.5
570.5
572
574
575
576.5
576
576.5
576.5
576.5
576
576
576.5
577
577.5
578.5
580
581
582.5
583.5
585
585.5
586
586
586.5
586.5
585.5
585.5
585
585
584.5
584
584.5
584
583.5
584
584.5
586
588
591
595
599.5
603
606.5
609.5
611
611.5
611
609.5
607
603
599.5
595.5
592
588.5
585.5
584.5
583.5
584
584.5
586.5
587
588
588.5
588.5
588.5
587.5
587
586
585
584.5
586.5
590
599
610.5
626.5
645
660
673.5
678
676
665.5
648.5
630.5
612.5
598.5
588.5
583
581.5
581.5
583
584.5
586.5
587.5
588.5
588.5
589
588.5
589
589
590
590.5
591
591.5
592.5
592.5
593
593.5
594
595.5
596
598
600
602.5
604.5
608
610.5
613.5
616
619
621.5
624
626
628
630.5
631.5
633.5
634.5
635.5
636
635.5
635
634
631.5
629.5
626
623
619
615
611
607
603.5
600
598
596
594.5
593.5
592.5
592
591
590
589
588.5
587.5
587
586.5
586
585.5
585
584.5
584
583
582.5
582
582
582
582
582
581.5
581.5
580.5
581
581
581
581.5
581.5
581.5
581
579.5
579
577.5
577.5
576.5
577.5
578
579
580
580.5
580.5
580
579
578
577
576
574.5
574.5
574
574
574
574
574
573.5
573
572.5
572.5
572
572.5
572.5
573
572.5
572
571
570.5
569.5
569
569
569
569.5
570
571
571.5
571.5
571
570.5
570
569.5
569
569.5
570
570.5
571.5
572
572.5
572.5
572.5
572.5
573
573.5
574.5
576
578
580
581.5
584
585.5
586.5
587
586
585.5
583
581
578.5
575.5
573
569.5
568
566
565.5
565.5
567.5
570.5
573.5
579
590.5
604
623
645
673
700.5
723.5
746.5
761.5
775.5
784.5
797.5
811.5
826.5
840
850
850
841.5
822
795
769
745.5
727.5
715
708
707
705.5
704
702
700.5
697.5
695
693
690.5
688.5
686
684
682.5
680
677.5
675.5
673
671
668.5
667
665
663.5
662
661.5
662
662.5
664.5
666.5
669.5
671.5
674.5
676.5
679
680.5
682.5
683.5
684.5
684.5
684.5
684
683
681
679
676.5
673.5
669.5
664.5
659.5
654
646.5
638.5
629.5
621
611
601.5
593.5
586
580
575.5
572
570
567.5
566
565
563.5
562.5
561
560.5
559
558
556.5
556
554.5
554
552.5
552.5
551.5
551.5
551
551.5
551.5
551
551.5
551.5
551.5
551.5
551.5
552
552
552.5
552.5
553
553
553
553.5
553.5
554
553.5
554
554
554
554
554
554
554
554
554
554.5
554.5
554.5
554.5
555
555
555
555.5
556
556
556.5
556.5
557
557
556.5
557
557
557
557
557
557
557
557
557
557.5
557
557
557
557
556.5
556.5
556.5
556.5
556.5
556
556
556
556
556
556.5
557
558
558.5
561
563
565.5
568
570.5
573
574.5
575.5
576
575.5
574
572
569.5
566.5
563.5
560
558
556
555
553.5
553.5
553
553
553
553
553.5
553
553
553
553
552.5
552
553.5
554.5
561
568.5
584
601
619
636.5
645
649.5
640
627
607
587.5
571
556.5
550.5
545.5
545.5
545
545.5
546.5
546.5
546.5
547
547.5
547.5
548
548.5
549
549
549
549.5
549.5
550
550
550.5
551
551.5
551.5
553
554.5
556.5
559
562.5
566.5
570.5
575
579.5
584.5
588
592
595.5
598.5
601
602.5
604.5
605.5
605.5
605.5
604.5
603.5
601.5
598.5
595.5
592
587.5
582.5
578
572.5
567.5
562
558
553.5
551
547.5
547
546
545.5
545.5
545.5
546
546.5
546.5
547.5
547.5
548
547.5
548.5
548.5
549
549
549.5
550
550
550
550.5
551
551.5
552
553
553.5
554
554
555
556
556.5
557
557.5
558.5
558.5
559
559.5
560
560
560
560.5
561
561
561.5
562
562.5
563
563
563.5
564
564
564.5
564.5
565.5
565
565.5
565.5
566
566
566
566.5
567
567
567
567.5
567.5
568
567.5
568
568.5
568.5
568.5
569.5
569.5
570
570
570.5
571
571
571
571.5
571.5
572
571.5
572
572.5
572.5
573
574
575
576.5
578
581.5
584.5
589
592.5
596.5
600.5
602
604.5
604
604.5
601.5
599
595.5
591.5
587.5
583
580
577
575.5
574
574
574
574
574
574.5
574.5
575
574.5
575
575
574
574
575.5
577.5
586.5
598
618
640
661.5
682
690
692
678.5
659
634.5
609.5
589
572
563.5
558.5
557.5
557.5
558.5
559.5
560
560
561
561.5
562
562.5
563.5
564
564.5
565
565.5
566.5
566.5
567
567.5
568
568
569
570.5
573
576.5
580.5
586.5
592
598.5
605
611.5
617.5
623
627.5
632
634.5
637
639
640
640.5
640
639
637.5
635
631.5
627.5
623
618.5
612.5
606
600
593
585.5
578.5
572.5
567.5
563.5
561
560
559
559.5
559.5
560.5
561
561.5
562.5
563.5
564
564.5
565
566
566.5
567
567.5
568
568
568.5
568.5
569
569
569
569
569.5
569
569.5
569.5
570
570
570
570.5
571
571
571
571.5
571.5
571.5
571.5
571.5
572
572
572
572
572
572
572
572.5
572.5
573
572.5
573
573
573
573
573.5
574
574
574
574
574.5
574
574.5
574.5
575
575
575
575.5
575.5
575.5
575.5
575.5
576
575.5
575.5
575.5
576
576
576
576
576.5
576
576.5
576.5
577
576.5
576.5
576.5
577
578
578.5
581
583
586
589
592
595.5
597
599.5
600
601
599.5
598
595.5
593
589.5
586
583.5
581
579
577.5
577
576.5
576.5
576
576.5
576.5
576.5
576.5
576.5
576.5
576
575
575.5
575.5
579.5
585
599
614.5
634.5
654
668
677.5
673
664
644.5
625
605
587
577
569
567
565.5
566
566.5
567
567
567.5
568
568
568
568
568.5
568
568
568.5
568.5
568.5
568.5
568.5
569
569
569
570
571
573
574.5
578
581.5
585
589.5
594
598.5
603
606.5
611
614.5
617.5
620
622
623.5
624
624
623.5
623
620.5
618
614.5
611.5
606.5
602
597
591.5
586
580
575
570
566
562
560
558.5
557.5
557
557.5
557.5
558
558
558.5
559.5
559
559.5
559.5
560
560
560
560.5
561
561
561.5
561.5
562.5
562.5
562.5
563
563.5
563.5
564
564.5
564.5
565
564.5
565.5
565.5
566
565.5
566.5
566.5
567
567
567.5
568
568
568
568.5
568.5
568.5
568.5
568.5
569.5
569
569.5
570
570.5
571
571
571.5
572
572
572
572
572.5
572
572.5
572.5
573
573
573
573.5
574
574
574
574
574.5
574
574.5
574.5
575
575
575
575
575.5
575
575
575.5
576
576.5
577
578
578.5
579.5
580.5
583.5
587
591.5
596.5
602
607
610.5
614
615
616.5
614.5
612.5
609
604.5
599.5
593.5
589
584.5
581
578
577
575.5
575
575
575
575.5
575
575
575
575
574
573.5
573.5
574.5
580
589.5
605
624
645
665.5
679.5
685
680
667
647
625.5
603
584
571
562.5
558.5
556.5
557.5
559
559.5
560.5
561
561.5
562
562.5
563.5
564.5
564.5
565.5
566
567
567.5
568
569
569
570
570.5
572
573
574.5
577
579.5
582.5
586.5
590.5
595.5
599.5
604
608.5
612
615.5
618
621
622.5
623.5
624
623.5
623
621
618
614.5
611
606.5
601.5
596.5
591.5
587
582
578
574.5
571
568.5
566.5
565.5
564.5
564
564
564
564
564
564.5
564.5
565
564.5
565
565
565
565
565.5
565.5
565.5
565.5
565.5
566
566
566
566.5
567
567
567
567.5
568
568
568.5
568.5
569
569
569
569.5
570
570
570
570.5
570.5
570.5
570.5
570.5
571
571
571
571.5
571.5
572
571.5
572.5
572.5
572.5
572.5
572.5
573
573
573
573
573.5
573
573.5
573.5
574
574
574
574.5
575
575
575
575
575.5
575
575
575.5
575.5
575.5
575.5
575.5
576
576
576
576
576.5
576
576
576.5
576.5
577.5
577.5
579.5
581
584
586.5
590.5
594
596.5
599.5
600.5
602.5
601.5
600.5
598.5
596
592.5
589
585.5
582.5
579.5
577
575.5
574.5
573.5
573
573
573
573
572.5
573
573
573
572.5
572.5
572.5
574
577
587
598
616
634
650.5
666
667.5
667.5
653
638
617.5
598
584.5
572
568
563.5
564.5
564.5
565.5
565.5
566
566.5
566
566.5
566.5
567
567
567
567.5
568
568
568
568
568.5
568.5
568.5
570
570.5
572
573.5
576
579
583
586.5
592
597
601.5
606.5
610.5
615
618
621
623.5
625.5
626.5
627
627
626.5
625
622.5
620
617
612.5
608
602.5
597.5
591
585
579.5
573.5
569
564
561.5
559
558
556.5
557
556.5
557
556.5
557.5
557.5
558
558
558.5
559
559
559.5
560
560.5
561
560.5
561.5
561.5
562
562
562.5
563.5
563.5
564
564.5
565
565
565
565.5
565.5
566
565.5
566.5
566.5
567
567
567.5
568
568
568
568.5
569
569
569.5
569.5
570
570
570
570.5
571
571
571
571.5
572
572
572.5
572.5
573
573
573
573.5
573.5
573
573
573
573.5
573
573.5
573.5
573.5
573.5
573
574
574
574.5
574.5
575.5
576
576
576.5
577
577.5
577.5
578
578.5
579
580
581.5
584
587.5
591.5
596.5
602
607
611.5
614.5
617
618
617
615.5
612.5
608.5
603
597.5
592.5
587.5
583.5
580
578.5
577
576
575.5
575.5
575.5
576
576
576.5
576.5
576
576
575.5
576
578
585
593.5
607.5
625
643
661
670.5
676.5
672
661.5
645.5
625
607
591
580.5
573
569.5
569
569.5
569.5
570
570
570
570
570.5
570.5
571
571
571.5
571.5
571.5
571
571.5
571.5
572
571.5
572
572.5
573
574
575.5
577.5
579.5
582.5
585.5
589.5
592.5
595.5
599
601.5
604
606
608
609.5
610.5
611.5
611.5
612.5
611.5
610.5
609
607
604
601
597.5
594
590
585.5
581.5
577.5
573
569.5
567
564.5
563.5
562
562
562
562
562
562
562.5
562
562.5
562.5
563
563
563
563.5
564
564
564
564.5
564.5
565
564.5
565
565.5
565
565.5
565.5
566
566
566
566.5
567
567
567
567.5
567.5
568
568
568.5
569
569
569
569.5
570
570
570
570.5
570.5
570.5
570.5
570.5
571
571
571
571.5
572
572
572
572
572.5
572
572
572.5
572.5
573
573
573.5
574
574
574
574.5
575
575
575
575.5
575.5
576
575.5
576.5
576.5
576.5
576.5
576.5
577
577
576.5
577
577
577.5
577.5
579
580.5
582.5
585
588.5
592
595.5
598.5
601.5
603.5
603.5
603.5
601.5
600
596
592.5
588.5
585
581.5
578.5
577
575.5
575
574.5
574.5
575
575
575
575.5
576
575.5
575.5
575
574.5
575
575.5
582
589
604
620
639
659
668
677
668.5
659
638.5
617
599
581
572.5
564.5
563.5
563.5
564
565
565.5
566
566
566
566.5
567
567
567.5
568
568.5
569
568.5
569.5
569.5
569.5
569.5
569.5
570.5
571
572
574.5
577
580.5
584
589
593.5
598.5
603.5
608
613
616.5
620
623
626
627.5
629
630
630
629
627.5
624.5
622.5
617.5
613
607.5
602
595.5
589.5
583.5
577.5
572.5
566.5
563.5
560
558.5
556.5
556.5
556
556
556
556
556.5
555.5
555.5
555
555
554
554
553.5
553.5
553
553
553.5
554
554.5
554.5
555.5
556
556
556.5
557
558
558
559
559.5
560
560.5
560.5
561.5
562
562
563
563
564
564
564.5
565
565.5
565.5
565.5
566
566.5
566
567
567
568
567.5
568
568.5
569
569.5
570
570.5
571
571
571
571.5
571.5
571.5
572
572.5
573
573
573.5
574
574.5
574.5
574.5
575
575
575
575.5
575.5
575.5
575.5
575.5
575.5
576
575.5
576
576
576
576
577
577.5
579
580.5
583
585.5
588.5
590.5
593.5
595
596
596
595
594
591.5
589
586.5
583.5
581
578.5
577
576
575.5
574.5
575
575
575
575
575.5
575.5
575.5
575.5
575
575
574.5
574.5
577.5
581
589.5
601.5
618
637.5
652.5
667.5
671
668.5
656
637
617.5
598
584
573.5
568.5
567.5
567.5
568.5
569
570
570
570
570
570.5
570
570.5
570.5
570.5
570.5
570
570.5
570.5
570.5
570.5
570.5
571
571.5
571.5
573.5
575
577.5
580
584
587.5
591.5
595
599
603
606
609.5
612
615
616
617.5
618
619
618.5
618
616.5
615
612
609
605
601.5
596
591.5
586.5
581.5
577
571.5
568.5
565
563
561
560.5
560
560
559.5
560.5
560.5
561
561
561.5
562
562
562
562.5
563
563
563
563.5
563.5
564
563.5
564.5
564.5
565
565
565.5
566
566
566
566.5
566.5
567
566.5
567
567.5
567
567
567.5
567.5
568
567.5
568.5
568.5
569
569
569.5
570
570
570
570.5
571
571
571
571.5
571.5
571.5
571.5
571.5
572
572
572
572.5
573
573
573
573
573.5
573
573
573.5
573.5
574
573.5
574
574
574
574
574.5
575
575
575
575.5
576
576
576
576.5
576.5
577
576.5
578
579
581
583
586.5
590
594
597.5
601
604
605
606
605
603.5
600
596.5
592.5
589
585
581
579
576.5
576
574.5
575
575
575
574.5
575
575
575
575
575
574.5
574.5
574.5
579
583.5
597.5
612.5
635.5
658.5
676
692
691.5
686.5
667
643
619.5
595.5
581
568
564
562
562.5
563
564
565
565.5
565.5
566
566.5
566
566.5
566.5
567
567
567
567.5
568
568
568
568.5
569
569.5
571
573.5
576.5
581
586
593
599.5
606.5
613
620
626
631.5
636
640.5
643.5
645.5
647.5
648
648.5
647.5
646
644
641
636.5
631.5
626
619.5
611.5
603
594
585.5
576
568.5
562
556.5
553
550
549
548.5
548
549
549.5
550.5
551
552
553
554
555
555.5
557
557.5
558.5
559
560.5
561
562
563
564
565
565.5
566.5
567.5
568
568.5
568.5
569.5
569
569.5
569.5
570
570
570.5
570.5
571
571
571
571.5
571.5
572
571.5
572
572.5
572
572.5
572.5
573
573
573
573
573
573
573
573.5
573.5
573.5
573
573.5
573.5
574
573.5
574
574
574
574
574.5
574.5
574.5
574.5
574.5
575
575
574.5
575
575
575
575
575.5
575.5
576
575.5
576
576.5
576
576.5
577
577.5
579
580
582.5
585
587.5
590.5
593
596.5
597.5
599
599
598.5
596.5
594
591.5
588.5
585.5
582
580
577.5
576.5
575
575
575
574.5
574.5
574.5
574.5
574.5
574
574
574
573.5
573
574.5
576.5
583.5
593.5
610.5
630
648.5
667
674.5
677.5
666
650
628.5
607
590
575.5
569
565
565
565
566
567
567.5
567.5
568
568.5
568
568
568.5
568.5
569
568.5
569.5
569.5
570
569.5
570
570
570.5
570.5
572.5
573.5
576
578
582
585.5
590
594
598.5
603.5
607
611
614
617.5
619.5
621.5
623.5
624.5
625
624.5
624
622.5
620
616.5
613
609
603.5
598.5
592.5
587
581
575
570.5
566.5
563
560.5
559.5
558.5
558.5
558
558.5
559
559
559
559.5
560
560
560
560.5
560.5
561
561
561.5
562
562
562
562.5
563
563
563
563.5
564
564
564
564.5
565
565
565.5
566
566.5
567
566.5
567
567
567
567
567.5
568
568
568
568.5
568.5
569
568.5
569
569.5
569
569
569.5
569.5
570
569.5
570
570
570
570
570.5
571
571
571
571.5
571.5
572
571.5
572.5
572.5
573
572.5
573
573
573
573
573.5
573.5
573.5
573.5
573.5
574.5
574
574.5
574.5
575.5
575.5
576
577
578.5
580.5
583
587.5
591.5
596
601
605.5
610
612.5
614.5
615
614.5
611.5
608
603.5
598
592.5
587
583
579.5
577
575.5
574.5
574.5
574
574
574.5
574.5
575
574.5
575.5
575
574
574
574.5
576.5
585
597
616.5
637.5
659
677.5
685
684
670.5
649.5
626.5
603
584
570
563
560.5
559.5
560
561.5
562.5
563.5
564
565
566
566.5
567.5
568.5
569
569.5
570
571
571.5
572
572.5
573
573
573
573.5
574
575
576
578.5
580.5
583.5
587
590.5
595
598.5
603
607
611
613.5
616
618
619.5
620
619.5
618.5
616.5
614
610
606.5
603
598.5
594.5
590
586
582
577.5
574.5
571
568.5
566
565
563.5
563.5
562.5
563
563
563
563
563.5
564
564
564
564.5
564.5
565
564.5
565
565
565
565
565.5
565.5
565.5
565
565.5
565.5
566
565.5
566
566
566
566
566.5
567
567
567
567.5
567.5
568
567.5
568.5
568.5
569
569
569.5
570
570
570
570.5
570.5
570.5
570.5
570.5
571.5
571
571
571.5
571.5
572
571.5
572
572.5
572
572.5
572.5
573
573
573
573
573.5
573
573
573.5
573.5
574
574
574.5
575
575
575
575.5
576
575.5
575.5
575.5
576
576
576
577
577.5
578.5
579.5
581.5
584
587
590
594
597.5
600
602
602.5
603
601
599
596
593
589.5
585.5
583
580
578
576
576
575.5
575.5
575.5
575.5
576
576
576
576.5
576.5
576
574.5
575.5
575.5
581
587.5
603
620
641
661.5
675
684
677.5
666.5
645.5
624
603.5
584.5
575
566.5
565
563
564
565
565.5
566
566.5
567
567
567
567.5
567.5
567.5
567
567.5
568
568
568
568.5
568.5
569
569
570
571
573
574.5
578.5
582
586.5
591
596.5
602
606.5
611
615
619
621.5
624
625.5
627.5
627
627.5
626.5
625.5
623.5
620.5
617.5
614
609
604
598
592.5
585.5
579.5
573.5
568.5
564
560.5
558.5
557.5
556.5
556.5
556.5
557.5
557
557.5
558
558.5
559
559
559
559
558.5
558
558
557.5
557
556.5
556.5
557
556.5
557
557.5
558.5
558.5
559.5
560
561
561
562
562.5
563.5
563.5
564
564.5
565
565
565.5
566
566.5
566.5
566.5
567
567
567.5
567
568
568
568.5
568.5
569.5
570
570
571
571.5
572
572
572
572.5
572.5
572.5
572.5
573
573.5
573.5
573.5
574
574
574
574.5
574.5
575
574.5
575
575
575.5
575
575.5
575.5
576
575.5
576
576
576
576
576.5
577
577.5
578
579.5
580.5
583
584.5
588
590.5
593
595
596.5
597
596.5
595
593
591
588
585
582.5
580
578.5
576.5
576.5
575.5
575.5
575
575.5
575.5
575.5
575.5
575.5
576
575.5
575
575
574.5
576.5
580.5
591
604.5
622.5
641.5
658
670.5
671
667
651
635
614.5
597
584
574.5
570.5
567.5
567.5
567.5
568
568
568
568.5
568
568
568.5
568.5
569
568.5
569.5
569.5
569.5
569.5
569.5
570
570
570
571
571.5
573
574
576.5
579.5
582.5
586
590
594
598
601.5
605.5
609
611.5
614
616
618
619
619.5
620
619.5
618
616
613.5
610.5
606.5
602
597.5
593
587.5
582
577.5
572.5
569
565
563
561
560
559
559.5
559.5
560
559.5
560.5
560.5
561
561
561.5
562
562
562
562.5
563
562.5
562.5
562.5
563
563
563
563.5
564
564
564
564.5
564.5
565
564.5
565.5
565.5
566
566
566.5
567.5
567.5
567.5
568.5
568.5
568.5
568.5
568.5
569
569
568.5
569
569
569.5
569.5
570.5
571
571
571
571.5
571.5
572
571.5
572.5
572.5
573
572.5
573
573.5
573
573.5
573.5
574
574
573.5
574
574
574
574.5
574.5
575.5
575
575
575.5
575.5
575.5
575.5
575.5
576
576
575.5
576.5
576.5
577.5
577.5
580
581.5
585
588
592
596.5
599
602.5
603.5
605.5
604
603.5
600.5
598.5
594
590
586.5
582.5
580
577
576
575
574.5
574
574
574.5
574
574
574.5
574.5
574.5
573.5
574
573.5
576.5
581.5
592.5
606.5
625.5
645
663
676
678
675
659.5
642
619.5
598
582.5
569.5
564
559
559.5
560.5
561
562.5
563
564
564
564.5
565
565.5
565.5
565.5
566
566
566
566
566.5
567
567
567.5
568.5
570
572
575
579.5
584.5
590
596.5
603
609.5
615
621
625
629
631.5
634
635.5
636.5
636.5
636.5
636
634.5
632
629
625.5
621.5
616
610
604.5
597.5
591
584
578.5
573.5
569
566
563.5
562.5
561
561.5
561.5
562
562.5
563
564
564.5
564.5
565.5
565.5
566
566
566.5
566.5
566.5
566.5
566.5
567
567
567
567.5
568
568
568
568
568.5
568
568.5
568.5
569
569
568.5
569
569
569
569.5
569.5
570.5
570
570.5
570.5
571
571
571
571.5
572
572
572
572
572
572
571.5
572
572
572
572
572.5
573
573
573
573.5
573.5
573.5
573.5
573.5
574
574
573.5
574
574
574
574
574.5
574.5
575
574.5
575
575.5
575
575.5
575.5
576
576
575.5
576
576
576.5
576.5
578.5
579.5
582
584
587.5
591
594
597
599
601.5
601
601
599.5
597.5
594.5
591
587.5
584.5
581
578.5
577
576
575.5
575
575
575.5
575
575
575.5
575.5
575.5
575
575
574.5
575.5
576
583
590
605
620
638
656
663.5
671
662
652.5
633
612.5
596.5
580
572.5
565.5
565
564.5
565.5
565.5
566.5
566.5
567
566.5
567.5
567.5
568
568
568.5
569
568.5
568.5
568.5
569
569
569
569.5
570
571
571.5
574.5
577
580.5
584
588.5
593
597.5
602
606.5
611.5
614.5
618
621
623
625
625.5
626
626.5
625
623.5
621.5
618.5
615
610.5
606
601
595
589
583.5
578
572.5
567.5
564
561
559.5
557.5
558
557.5
557.5
557.5
558
558.5
558.5
558.5
558.5
559
559
559
559.5
560
560
560
560.5
561
561
561.5
561.5
562.5
562.5
563
563.5
564
564
564
564.5
565
565
565
565.5
566
566
566.5
567
568
568
568.5
568.5
569.5
569
569.5
569.5
570.5
570
570.5
571
571
571.5
571.5
572
572
572
571.5
572
572
571.5
571.5
572
572
572.5
572
573
573
573.5
573.5
574
574.5
574
574.5
575
575
575
575
575
575.5
575.5
575.5
576.5
576.5
576.5
576.5
577.5
577.5
579
579.5
582
584.5
587.5
591.5
596
600
604
607.5
609.5
611
610
609
606.5
603.5
599
594.5
590.5
586
582
579
577
575.5
575
574.5
575
575
575
575.5
575.5
575.5
575.5
575
575
574.5
575.5
579.5
584.5
595
608
626
645
659.5
672.5
675
670.5
657
637
616.5
597.5
583
573
568
566.5
567.5
567.5
568.5
569
569
569
569.5
569.5
570
569.5
570
570
570
570
570
570.5
570
570.5
570.5
571.5
571.5
572
573.5
574.5
577
578.5
582.5
585.5
589
592.5
596
600
603
606
609
611.5
613
614.5
615
616
615.5
615
614
612.5
610
607
603.5
600
595
590.5
585.5
581
576
571.5
568
565.5
563
561.5
561
561
561
561
561.5
561.5
562
561.5
562.5
562.5
563
562.5
563.5
563.5
564
564
564.5
565
565
565
565
565.5
565
565
565.5
565.5
565.5
565.5
565.5
566.5
566
566
566.5
566.5
567
566.5
567
567.5
567
567.5
567.5
568
568
568
568.5
569
569
569
569.5
570
570
570
570.5
571
571
571.5
572
572.5
573
572.5
573
573.5
573
573
573.5
573.5
574
573.5
574
574.5
574
574.5
574.5
575
575
575
575.5
576
576
576
576.5
577
577
577
577
577.5
577
577
578
579
581
583
587
590.5
594.5
598
601
604.5
605
606
605
603.5
600.5
596.5
593
588.5
585
581
579
577
576
575
575
575.5
575
575
575.5
575.5
575.5
575.5
575
575
574.5
574.5
579.5
584.5
599
614.5
637
660.5
677
692.5
691
685
664.5
640.5
617
593.5
579.5
567
563.5
562
563
563.5
565
565.5
566
566
566.5
567
567
567
567
567.5
567
567
567.5
567.5
567.5
567
568
568
569
570
573
576
580.5
585.5
592
598.5
605.5
612
619
625.5
630.5
636
640
643.5
645.5
647
648
648
647
645
643
639.5
635
629.5
624
617
609.5
601
593
584
576
568
562.5
557
553.5
551
550.5
550
550.5
551
552
553.5
554
555.5
556.5
558
558.5
560
561
562
562.5
563.5
564.5
565
566
566.5
567.5
568
568
568.5
568.5
569
568.5
569
569.5
569
569.5
569.5
570
570
570
570.5
570.5
571
570.5
571
571.5
571.5
571.5
572
572
572
572
572
572.5
572
572
572.5
572.5
573
573
573.5
574
574
574
574
574.5
574
574
574
574.5
574
574.5
574.5
575
575
575
575.5
575.5
575.5
575
575.5
575.5
576
575.5
576
576.5
576
576.5
576.5
577
577
577
577.5
578.5
579.5
580.5
583.5
586
589
592
595
597.5
599
600
600
600
597.5
595.5
592
589.5
586
582.5
580.5
578
576.5
575
575
574.5
574.5
574
574.5
574.5
574.5
574
574
574.5
573.5
573.5
575
577
585
595
613
632.5
651
669
675.5
678
665
648.5
626.5
605
588.5
574.5
568.5
565.5
565
565.5
566
567
567
567
567.5
568
568
568
568.5
568.5
568.5
568
568.5
569
569
569
569.5
570
570.5
571
572.5
574.5
576.5
579
583
587
591.5
595.5
600.5
605
609
613
616.5
620
622
624
625
626.5
626
625.5
624.5
623
620
617
613
609
603.5
597.5
592
586
580
574
569.5
565
562
559
558
557
556.5
556
556
556.5
556.5
556.5
557.5
558
558.5
558.5
559.5
560
560.5
560.5
561.5
561.5
561.5
561.5
561.5
562
562
562
562.5
563.5
563
563.5
563.5
564.5
564.5
565
565.5
566
566
566
566.5
566.5
567
566.5
567.5
568
568
568.5
568.5
569.5
569
569
569.5
569.5
569.5
569.5
569.5
570
569.5
570
570.5
571
571
571
571.5
572
572
572
573
573
573
573.5
573.5
574.5
574
574.5
574.5
575
574.5
575
575
576
575.5
576.5
576.5
577.5
577
577.5
578
578.5
578.5
579
580
581
583
585.5
589.5
593.5
597.5
602
605.5
608
609.5
610
609.5
607.5
604.5
600.5
597
592.5
588
584
581
578.5
577
576
576
575.5
575.5
575.5
576
576
576
576
576
575.5
574.5
575.5
575.5
579
586
599.5
617
637
657.5
672
679.5
674
661
640
619
599
583.5
573.5
568.5
567.5
566.5
567.5
568
568
568.5
568.5
569
569
569
569.5
569.5
569.5
569
569.5
570
570
570
570
570.5
570.5
570.5
572
572.5
574.5
575.5
579
581.5
585
588.5
592
596.5
599.5
603
606
609
611
613
614.5
616.5
616.5
616.5
616.5
615.5
613.5
611.5
608.5
605.5
601.5
597
592.5
588
582.5
577.5
573
569
566
563
562
561
560
559.5
559.5
560
559.5
559.5
559.5
560
560.5
560.5
561.5
562
562
562
562.5
563
563
563
563.5
564
564
564
564.5
564.5
564.5
564.5
564.5
565.5
565
565
565.5
566
566
566.5
566.5
567.5
567
567.5
568
568.5
569
568.5
569.5
569.5
569.5
569.5
569.5
570
569.5
569.5
569.5
570
569.5
569.5
569.5
570.5
570
570.5
570.5
571
571
571
572
572.5
573
573
573.5
574
574
574
574.5
575
575
575
575.5
576
576
575.5
576
576
576
576
576.5
576.5
576.5
576
577
577.5
579
579.5
582.5
585
588.5
592.5
596.5
600.5
603
605
606
606.5
605
602.5
599.5
596
591.5
587.5
584
581
579
576.5
576.5
576
575.5
575.5
575
575.5
575
574.5
575
574.5
574
573
574
575
581
590.5
607
626.5
648
669
682
688.5
681
667
645
622
600
581
570
562
559.5
557.5
558.5
560
560.5
561.5
562
562.5
562.5
562.5
563.5
563.5
563.5
563.5
564
564.5
564.5
565
565.5
566
566.5
567
569
570.5
573.5
576.5
581.5
586.5
592
598
604
609.5
614.5
619
623
626
628
630.5
631.5
632.5
632
632
630.5
628.5
625
621.5
617
612.5
606.5
600.5
595.5
589.5
584.5
579.5
575.5
572.5
569
567.5
566.5
565.5
565
565
565
565
565
565
565.5
565
565.5
565.5
566.5
566
566.5
566.5
567
567
567
567.5
567.5
568
567.5
568
568.5
568
568.5
568.5
569
569
568.5
569
569
569
568.5
569
569
569
569
569.5
569.5
570
569.5
570
570.5
570
570
570.5
570.5
571
570.5
571.5
571.5
572
571.5
572.5
572.5
572.5
572.5
572.5
573
573
573
573
573.5
573
573
573.5
573.5
574
573.5
574.5
575
575
575
575.5
575.5
576
575.5
576.5
576.5
576.5
576.5
576.5
577
577
576.5
577
577.5
577.5
578.5
580
582.5
585
588
591.5
595
597.5
600
601.5
603
602
601
598.5
596.5
592
588.5
585
582
579.5
577
576
575.5
574.5
574.5
574.5
575
575
575
575
575.5
574.5
574
574
574
576.5
580
591.5
603.5
623
641.5
658.5
673.5
673.5
672
655.5
638.5
617.5
596.5
583.5
571
567
562.5
563.5
564
564.5
565
565.5
566
566
566
566.5
567
567
567
567.5
568
568
568.5
569
569.5
570
570
571
572
573.5
574.5
578
581
584.5
588.5
593.5
598.5
603.5
608
612.5
617
620
623
625.5
627.5
628.5
629
629
629
627
625
622
618.5
614
608.5
603.5
597.5
591.5
584.5
579
573
568
563.5
561
559
557.5
556.5
556
556
555.5
555
555
555
554
554
554
554.5
554.5
555
555.5
556.5
556
557
557
558
557.5
558
558.5
559
559
559
559.5
560
560
560.5
561
561.5
561.5
562
562.5
563
563
563
564
564.5
564.5
565
565.5
566
566
566.5
567
567.5
567.5
568
568.5
569
569
569.5
570
570.5
570.5
571
572
572.5
573
573.5
574
574
574
574.5
574.5
575
574.5
575
575
575
575
575.5
575.5
576
575.5
576
576
576
575.5
576
576
576
576
576.5
576.5
577
577
578.5
579.5
581.5
583
586
588.5
591
593
594.5
596.5
596
596
594.5
593
590
587.5
584.5
582.5
579.5
577.5
576
575
574.5
573.5
574
574
574
574
574.5
575
575
575
575
575
575.5
576.5
583
590.5
604.5
620
637.5
655
662.5
669
661.5
652
634
614.5
598.5
582.5
574.5
567.5
566
566
566.5
567
567.5
568
568
567.5
568
568
568
568
568.5
569
569
569
569.5
570
570
570
570.5
571
571.5
572
574.5
576.5
580
583
588
592.5
597
601.5
605.5
610.5
613
616.5
618.5
621.5
622
623.5
623.5
624.5
623
622
619.5
617.5
613
609.5
604.5
600
594
588
582.5
577
572
566.5
564
560.5
559
557
557
557
557
557
557.5
558
558
558
558.5
559
559.5
559.5
560.5
561
561
561.5
561.5
562.5
562.5
562.5
563.5
563.5
564
563.5
564.5
564.5
565
564.5
565.5
565.5
565.5
565.5
565.5
566.5
566.5
566.5
567.5
567.5
567.5
567.5
567.5
568.5
568
568
568.5
569
569
569
569.5
569.5
570
569.5
570.5
570.5
571
570.5
571
571.5
571
571.5
571.5
572
572
571.5
572
572
572
572.5
573
574
574.5
574.5
575.5
576
576
576.5
577
578
578
578
578.5
578.5
578
578
578
578
578
579
581
584
587.5
591.5
597.5
602.5
608
612.5
616.5
619
619.5
618.5
616.5
612.5
607
601
595
589.5
584
579.5
577
575
573.5
573.5
573.5
574.5
574.5
575
576
575.5
575.5
575
574.5
574
574.5
578
583.5
593.5
608
625.5
645
660
672
676
671
658.5
639
618
599.5
584.5
574.5
569
568
568.5
569.5
570
571
571
571
571
571
571
570.5
571
571
571
571
571
571.5
571
571
571.5
572
572.5
573
574.5
576
578
580
583
586
589
592
595.5
599
602
604.5
607.5
609.5
611
612
613
614
613.5
613
611.5
610.5
607.5
605
601.5
598
593.5
589
584.5
580.5
575.5
571.5
568.5
565.5
564
562
561.5
561.5
561
561
561
561.5
561
561
561.5
562
562
562
562.5
563
563
563.5
563.5
564.5
564
564.5
564.5
565.5
565
565
565.5
565.5
566
565.5
566.5
566.5
567
566.5
567.5
567.5
568
567.5
568.5
568.5
568.5
568.5
568.5
569
569
568.5
569.5
569.5
570
570
570.5
571
571
570.5
571.5
571.5
571.5
571
571.5
571.5
571.5
571.5
571.5
572.5
572
572.5
572.5
573
572.5
572.5
572.5
573.5
573
573.5
574
574.5
575
574.5
575
575.5
575
575.5
575.5
576.5
576
576.5
576.5
577
577
577
578
579.5
581
583
586.5
590
594
597.5
601
604
605
605.5
605
604
600.5
597.5
593.5
589.5
586
581.5
579.5
577.5
576
575
575
575
575
575
575.5
576
576
576
576
576
575.5
575.5
580
585
598.5
614.5
636.5
660.5
677
693.5
692
687
666.5
642.5
618.5
595
580
567.5
563.5
562
562.5
563
564
564.5
564.5
564
564.5
564
564
564
564.5
565.5
565.5
566
567
567.5
567.5
568
568.5
569
569.5
570.5
573
576
580
585
591
598
604
611
616.5
622.5
626
630.5
633.5
635.5
637
638
638.5
638.5
637
636
633.5
630.5
626
621
616
610
603.5
596.5
590.5
584.5
578.5
573.5
569.5
566.5
564
563
562.5
562.5
562.5
563
564
564.5
564.5
565.5
565.5
566
566
566.5
567
566.5
566.5
566.5
567
567
567
567.5
567.5
568
567.5
568
568
568
568
568.5
569
569
569
569.5
569.5
570
569.5
570
570.5
570
570.5
570.5
571
570.5
570.5
570.5
571
571
571
571.5
571.5
572
571.5
572
572.5
572
572
572.5
572.5
573
572.5
573.5
573.5
573.5
573.5
573.5
574.5
574
574.5
574.5
575
575
574.5
575
575
574.5
574.5
574.5
575
575
575
575.5
576
575.5
575.5
575.5
576
576
576
576.5
577.5
578.5
579.5
582.5
585
588.5
591.5
595.5
598.5
600.5
601.5
602
601.5
599.5
597
594
590.5
587
582.5
580.5
577.5
576
574
574
574
574
574
574.5
575
575
575
575
575
574.5
573.5
575.5
577.5
585.5
595.5
614
633.5
652.5
671.5
677.5
681
667.5
651
628.5
606.5
589
574
568
563.5
563.5
563
564
565.5
565
565.5
565.5
566
566
566
566
566.5
566
566
566.5
567
567.5
567.5
568.5
569
569.5
569.5
571.5
573
575.5
578
582
586
590.5
595
600
605
609
613
616.5
620.5
622.5
624.5
626.5
627.5
627.5
627
625.5
624.5
621
618
613.5
609.5
603.5
598
592.5
586.5
581
574.5
570.5
565.5
562.5
559
558
557
556.5
556
556
556
555.5
555.5
555.5
556
555
555
554.5
555
554
554.5
554.5
555.5
555.5
556
557
557.5
558
558.5
559
560
559.5
560
560.5
561
561
561.5
562.5
563
563.5
564
564.5
565.5
565
566
566
567
566.5
566.5
567
567
567
567.5
568
568.5
568.5
569
570
570.5
571
571.5
572
573
572.5
573.5
574
574
574.5
574.5
575
574.5
574.5
574.5
574.5
575
574.5
575
575.5
575
575.5
575.5
575.5
575.5
575
575.5
576
576
576
576.5
576.5
577
576.5
577.5
577.5
578.5
579
581
583
585
587.5
590
593
594.5
596.5
597
598
596.5
595
593
590.5
587.5
584.5
582
580
578
576.5
576
575.5
575.5
575
575.5
576
576
576
576
576.5
575.5
575
575.5
575.5
580
586
600.5
617
636.5
656.5
669.5
678.5
672
661.5
641
620.5
601
583.5
574
567
565.5
564
565
566
566.5
567
567.5
568.5
568
568
568.5
568.5
568.5
568
568.5
568.5
569
568.5
569.5
569.5
570
570
571.5
572.5
574.5
576
579.5
583
586.5
590.5
595
600
604
608
611.5
615
617
619
621
622.5
623
623
622.5
622
619.5
617.5
614
611
606
601
596
590.5
585
579
574.5
570
566
562.5
560.5
559.5
558
557.5
557.5
557.5
557.5
557
557.5
558
558
558
558.5
558.5
559
558.5
559.5
559.5
559.5
559.5
560
560.5
561
560.5
561.5
562
562.5
562.5
563.5
564
564
564
564.5
565
565
565
565.5
566
566
566
566
566.5
566
566.5
566.5
567.5
567.5
567.5
568.5
569
569
569.5
570
570.5
571
570.5
571.5
571.5
571.5
571.5
571.5
572.5
572
572.5
572.5
573.5
573.5
574
575
575.5
576
576
577
577
577
576.5
577
577
576.5
576.5
576.5
577
576.5
577
577
577.5
577.5
577.5
578.5
579.5
580.5
582.5
586
589.5
594
599
604.5
609.5
613.5
616.5
618.5
618.5
616.5
613.5
610
605
599.5
593.5
588.5
584
580
577.5
576.5
575.5
575.5
575
575.5
575.5
575.5
575.5
576
575.5
575.5
575.5
575.5
577
581.5
591.5
605.5
623
643
661
674.5
677.5
673.5
660
642.5
623.5
603.5
590
579
573.5
570
568.5
569
569
569.5
569.5
570
570
570
570
570.5
570
570
570.5
571
571
571
571
571.5
571
571
571.5
572
573
574
576.5
579
582
585
589
592.5
596
599.5
603
606.5
609
611
613
615
615.5
616.5
616.5
616.5
615
613
611
608.5
605
601
597
592.5
587.5
582.5
578
573.5
570
565.5
564
562
561
560
560
560.5
560
560.5
560.5
561.5
561
561.5
561.5
562.5
562
562.5
563
563.5
563.5
563.5
563.5
564
564
563.5
564
564.5
564
564.5
564.5
565.5
565
565.5
566
566.5
567
566.5
567.5
567.5
568
567.5
568.5
568.5
568.5
568.5
568.5
569.5
569
569
569.5
569.5
569.5
569.5
569.5
570.5
570
570.5
570.5
571.5
571
571.5
571.5
572.5
572
572
572.5
573
573
573
573.5
574
574
574
574.5
574.5
574.5
574
574.5
575
575
575
575.5
576
576
576
576.5
577
577
577
577.5
578
578.5
579
581
583
585.5
588.5
592
596.5
599
602.5
604
606
605
604
601.5
598.5
594.5
590
586.5
583
580
577
576
574.5
574.5
573.5
574
574.5
574
574.5
574.5
575.5
575
574.5
574.5
574
576.5
581
592
605
623.5
643
660.5
674.5
677
675.5
661
645
622
601
584.5
571
564
558.5
558.5
559
560
560.5
561.5
561.5
561.5
561.5
562
562
562
562
562.5
563
563
563
564
564.5
564.5
565.5
566.5
568.5
570.5
574
578
582.5
587
592.5
597.5
602.5
607
611.5
615
618.5
621
623.5
626
626.5
627.5
627
627
625
623
619.5
616.5
612
607
602
597.5
592
587
582
578
574.5
571
569
567
565.5
564.5
564
564
564
563.5
564
564
564
564
564.5
565
565
565
565
565.5
565
565.5
565.5
566.5
566
566
566.5
566.5
566.5
566.5
566.5
567
567
567
567.5
568
567.5
567.5
567.5
568
568
568
568.5
569
569
569
569.5
569.5
570
569.5
570.5
570.5
571
570.5
571.5
572
572
572
572.5
572.5
572.5
572.5
572.5
573
573
572.5
573.5
573.5
574
573.5
574.5
574.5
574.5
574
574.5
574.5
574.5
574.5
574.5
575
575
574.5
575.5
575.5
576
576
576.5
577
577
576.5
577
577.5
577
577.5
578.5
580
582.5
584.5
589
592.5
596
599
601.5
603.5
603.5
603
601.5
599.5
596
592
588.5
585
581.5
578.5
577
575.5
575
574
574
574.5
574
574
574.5
575
575
574.5
574.5
574
574.5
575
581.5
588.5
603.5
620
639.5
659.5
669
678
669.5
660.5
639
617.5
599
581
572
564
563
562.5
563.5
564
564.5
565.5
565.5
565.5
566.5
567
567
567
567.5
568
568
568
568.5
568.5
568.5
568.5
569
570
571
571.5
574.5
576.5
580.5
583.5
589
594
599
605
610
616
620
624.5
628.5
632
634.5
636
637.5
638
637
636
633.5
631.5
626.5
622
616.5
610.5
603.5
595.5
588
580
572.5
565.5
560.5
556
553
551
550.5
550.5
550.5
550.5
551.5
552
552
552
552.5
552.5
552.5
553
553.5
554.5
554.5
555
556.5
556.5
557.5
557.5
558.5
559
559.5
560
561
561.5
562
562.5
563.5
564
564.5
565
566.5
567
567.5
568
569
569
569.5
570
570.5
571
571
571.5
571.5
572
571.5
572.5
572.5
573
572.5
573
573
573
573
573.5
573.5
573.5
573.5
573.5
574
574
573.5
574
574
574
574
574.5
574.5
575
574.5
575
575.5
575
575.5
575.5
576
575.5
575.5
575.5
576
575.5
575.5
575.5
576
576
576
577
578
579.5
581
584
586.5
589.5
592
594.5
597
598
598.5
598
597.5
594.5
592
589
586
583
580
578.5
576.5
576
574.5
575
575
575
575
575.5
575.5
575.5
575
575
575
574.5
574
577.5
581
591
603.5
621.5
641.5
656.5
671
672
669.5
654
634.5
615
594.5
581.5
570
566.5
564.5
565
565.5
566
567
566.5
566.5
566.5
567
567
566.5
567
567
567
567
567.5
568
568
568
569
569.5
570.5
570.5
573
574.5
577.5
580
584.5
589
593.5
598.5
603
608
611.5
615
618
621
622.5
624
625
626
625
624.5
622.5
621
617
613.5
609
605
599
593.5
587.5
582
576.5
570.5
567
563
560.5
558
557.5
556.5
556.5
556
556.5
557.5
557
557.5
558
558.5
559
558.5
559.5
559.5
560
560
560.5
561
561
561
561.5
562
562
562
562.5
563
563
563
563.5
564.5
564
564.5
565
565.5
566
566
566.5
567
567
567
567.5
568
568
568
568.5
568.5
568.5
568.5
569
569.5
569.5
569.5
570
570.5
570
570.5
570.5
571.5
571
571.5
572
572.5
572.5
572.5
573
573
573
573
573.5
574
574
574
575
575
575.5
575.5
576.5
576.5
576.5
576
576.5
576.5
576.5
577
577.5
578
578
579
580
582
583.5
586.5
590
593.5
597.5
601.5
604.5
606.5
607
606.5
605.5
602.5
599
595
591
587.5
583.5
581
579
577.5
576.5
576
576
576
575.5
576
576
576
576
576
576.5
575.5
575.5
576.5
578
583
592.5
607.5
627
646
665
676
679.5
670.5
654.5
632.5
611.5
593
579
571.5
567.5
567.5
567
568
568.5
568.5
568.5
568.5
569
569
569
569.5
570
570
570
570.5
571
571
571
571.5
571.5
572
571.5
573
574
575.5
577.5
580.5
584
587.5
591.5
595.5
600
603.5
606.5
610
613
614.5
616.5
617.5
619
619
619
618
617
614.5
611.5
608.5
605
600.5
595.5
591
586
580.5
575.5
571
567.5
564
561.5
560
559.5
558.5
558.5
558.5
559
559
558.5
559.5
559.5
560
559.5
560.5
560.5
561
561
561.5
562
562
562
562.5
563
563
563
563.5
564.5
564
564.5
565
565.5
566
565.5
566.5
566.5
567
566.5
567
567
567
566.5
567.5
567.5
568
568
568.5
569
569
568.5
569.5
569.5
569.5
569
569.5
569.5
570
569.5
570.5
570.5
571
570.5
571.5
571.5
571.5
571.5
571.5
572
572
572
572.5
573.5
573.5
573.5
574.5
574.5
574.5
574
574
574
574
573.5
574.5
574.5
575
575
575.5
576
576
576
577
578
579
580.5
583.5
586.5
590.5
594
598
602
604
606
606.5
607
604.5
602
598
594
589.5
585
582
579
577
575
575
574.5
574.5
574
575
574.5
575
574.5
575
574.5
573.5
573
574
576.5
584.5
597.5
616.5
639.5
660.5
680.5
689
689
676.5
656
633
608.5
588.5
572.5
564.5
560
559
558.5
560
561
561.5
562
563
563
563.5
563
564
564
564.5
565
566
566.5
567
567.5
568.5
569.5
570
571.5
572.5
574.5
575.5
578.5
581
584
587.5
591.5
595.5
599
603
607
610.5
613.5
615.5
618
619.5
620
619.5
618.5
617
614.5
611.5
608
604.5
600
595.5
591.5
587
583.5
578.5
575.5
572
569
566.5
565
564
563.5
562.5
563
563
563
563
563.5
563.5
564
563.5
564.5
565
565
565.5
565.5
566
566
565.5
566
566.5
566
566.5
566.5
567
567
567
567.5
568
568
568
568.5
569
569
569
569
569.5
569
569
569.5
569.5
570
569.5
570.5
570.5
570.5
570.5
570.5
571.5
571
571
571.5
571.5
572
571.5
572
572.5
572
572.5
572.5
573.5
573
573
573.5
573.5
574
573.5
574
574.5
574
574
574.5
575
575
575
575.5
575.5
575.5
575.5
575.5
576.5
576
576
576.5
576.5
577
576.5
577.5
578
579
580
582.5
585
588
591.5
595
599.5
601.5
604
605
606
604
602.5
599
596.5
592
588
584.5
581.5
579
576.5
576.5
575.5
575.5
575
575.5
575.5
575.5
575
575.5
575.5
575
574
574
574
578.5
584.5
600
617
638.5
660.5
675
687
681
672.5
651
630
608
588
576.5
567.5
565
562.5
564
564.5
565
565.5
566
566.5
567
566.5
567.5
567.5
567.5
567.5
567.5
568.5
568
568.5
568.5
569.5
569
569.5
570
571.5
573
575.5
579
583.5
588
594
600
607
612
618.5
623.5
629
632.5
636.5
639.5
642.5
643.5
644.5
644
644
641
638.5
634.5
630
624
617
610
601.5
593
584
576.5
569
562.5
557
554
551
550
549
549.5
549.5
549.5
549.5
550.5
550.5
551
551
552
553
553.5
554.5
555.5
556.5
557
558.5
559.5
560.5
561
562
563
564
564.5
565.5
566.5
567.5
568
568.5
569.5
569
569.5
569.5
570
570
570
570
570.5
570
570.5
570.5
571
571
570.5
571.5
571.5
572
572
572
572.5
572
572
572.5
572.5
573
572.5
573
573.5
573
573.5
573.5
574
573.5
573.5
573.5
574
574
574
574.5
574.5
574.5
574.5
574.5
575.5
575
575
575
575.5
575
575
575.5
575.5
576
575.5
576.5
576.5
577
577.5
579
581
583
585.5
588.5
592
594.5
597
598.5
600.5
599.5
599.5
597
595.5
591.5
588.5
585
582.5
579.5
577.5
576.5
576
575.5
575
575
575.5
575
575
575.5
575.5
575
574.5
574
574
575.5
578
587.5
598.5
615.5
633
649.5
665
666.5
667.5
653
639
619
599.5
586.5
573.5
569
564.5
564.5
565
565
565.5
566
566.5
566.5
566.5
566.5
567.5
567
567
567.5
567.5
567.5
567
567.5
568
568
568.5
569.5
570.5
572.5
573.5
577
580
583.5
587.5
592
597
601.5
605.5
610
614
617
620
622.5
625
625.5
626.5
626.5
626.5
625
623
620
617.5
612.5
608
603
597.5
591.5
585
579.5
574
569.5
564.5
562.5
560
559
557.5
558
558
558
558
558.5
558.5
558.5
558.5
559
559.5
560
559.5
560.5
561
561
561.5
562
562.5
563
562.5
563.5
564
564
564.5
565
565.5
566
565.5
566.5
566.5
566.5
566.5
566.5
567
566.5
566
566.5
566
566
565.5
566
566
566
566
566.5
567
567
567.5
568.5
569
569.5
570
570.5
571.5
571
571
571.5
571.5
571
571.5
571.5
572
572
572
572.5
573
573
573.5
574
574.5
574
574
574.5
574.5
574.5
575
575.5
576
576
576.5
577
577.5
577
577.5
577.5
578
578
579
580
581.5
583.5
586.5
589.5
592.5
595
597.5
599
599
598.5
596.5
595
591.5
588.5
585.5
582.5
580.5
578
577
576
575.5
574.5
575
575
575
575
575.5
575.5
575.5
575
574.5
574.5
574.5
575.5
581.5
588
601
616
634
652
662
670.5
666
658
641
621.5
603.5
587.5
577
569.5
566.5
566
566.5
567
567.5
568.5
568
568.5
568.5
569
569
568.5
569.5
569.5
569.5
569.5
569.5
570
569.5
569.5
570
570.5
571.5
572
574.5
576.5
579.5
582
586
590
594
598
602
606
609
611.5
614.5
616.5
618
619
619.5
620.5
619
618.5
616.5
614.5
611
607
603
599
593.5
588.5
583
578
573
568
565.5
562.5
561
559.5
559
559.5
559
559.5
559.5
560.5
560
560
560.5
560.5
560.5
560
560.5
561
561
561.5
561.5
562.5
562
562.5
563
563.5
564
563.5
564.5
565
565
565
565.5
566
566
565.5
566
566
566
566
566.5
567
567
567
567.5
568
568
568
568.5
569
569
569
569.5
570
570
570
570
570.5
570
570
571
571
572
571.5
572.5
573
573
573
573.5
573.5
573.5
573
573.5
573.5
573.5
573
573.5
574
574
574
574.5
575
575
575
575.5
576
576
576
576
576.5
576.5
577
579
581
584
587.5
592.5
597
601.5
605.5
609
612.5
613
613.5
612
609.5
605.5
600.5
595.5
590.5
585
581
578
576
574.5
574
574
574.5
574
574
574.5
575
575
575
575
575
575.5
578.5
583.5
592
605.5
622.5
642.5
660
673
680.5
676
665
643.5
620
598.5
580
568
560.5
559
560.5
561.5
563.5
565
566
567
567.5
569
569
570
570
571
571
571
571.5
571.5
571.5
571.5
571.5
572.5
572.5
573.5
574.5
576
577.5
579.5
582
585.5
588
591.5
595
598.5
601.5
604.5
607.5
610
612
613
614
614.5
613.5
612.5
610.5
609.5
606
604
600.5
597.5
594
589.5
586
581.5
577.5
573
570.5
567.5
565.5
563.5
562.5
562.5
562
561.5
562
562
562
562
562.5
563
563
563
563.5
564
564
564.5
564.5
565.5
565
565
565.5
565.5
565.5
565.5
565.5
566
566
566
566.5
567
566.5
566.5
566.5
567
567
567
567.5
568.5
568
568.5
568.5
569.5
569
569.5
569.5
570
570
570
570.5
571
571
571
571.5
572
571.5
571.5
571.5
572
572
572
572.5
573
573
572.5
573
573
573
573
573.5
574.5
574
574.5
575
575.5
575.5
575.5
575.5
576
575.5
575.5
575.5
576
576
575.5
576.5
576.5
577
577
578
579.5
581
583
586.5
589.5
593
596
599.5
602.5
604
605
604.5
604
601
597.5
594
590
586
582
580
577.5
576.5
575
575
575
574.5
574.5
574.5
575
575
574.5
574.5
574.5
573.5
573.5
576.5
580.5
592
606
627
650
667.5
685.5
686.5
684.5
666.5
644.5
621.5
598
582.5
569
564.5
562
562.5
563
564.5
565.5
566
566
566.5
567
567
567
567.5
568
567.5
567.5
567.5
568
568
568
568.5
569
569.5
570.5
573
576
579.5
584
590
596
602.5
609
616
622.5
627.5
633
637
641
643.5
645.5
647
647.5
646.5
645
643
640
635.5
631
625.5
619.5
611.5
603.5
595
586
577.5
569.5
563.5
558.5
555
552.5
552.5
552
552.5
553.5
554.5
555.5
556.5
557.5
559
559.5
560.5
561
562.5
563
563.5
564.5
565
566
566
567
567.5
568
568
568.5
568.5
569
568.5
569.5
569.5
569.5
569.5
569.5
570
570
570
570.5
570.5
571
570.5
571
571.5
571
571.5
571.5
572
572
571.5
572
572
571.5
571.5
571.5
572
572
571.5
572
572
572
572
572.5
573
573
573.5
573.5
574.5
574
574.5
574.5
575
575
574.5
575
575
575
574.5
575
575
575
575
575.5
576
575.5
575.5
575.5
576
576
576
576.5
577.5
578
579.5
582
584.5
588
590.5
594
597
598.5
600
600
600
598
595.5
593
590
586.5
583
580.5
578.5
576.5
575.5
575
575.5
575
575
575.5
575.5
575.5
575
575
575
574
573.5
574.5
576
583
591.5
609
628
647.5
667
676
680.5
670
654.5
633
611
593
577
570
565
564.5
564
565
566
566
566
566.5
567
567
567
567.5
567.5
567.5
567
567.5
568
568
568
568.5
568.5
569
569
570.5
572
574
576
580
584
588.5
593
598.5
604
608.5
613
616.5
620.5
622.5
625
626.5
628
628
627.5
626.5
625.5
622
619.5
615.5
612
606.5
601.5
595.5
590
584
577.5
573
568
564.5
561
560
558.5
558
557.5
557.5
558.5
558
558.5
558.5
559.5
559
559.5
560
560.5
561
560.5
561.5
561.5
561.5
561
561
561
560
560
560
560
560
560
560.5
561
561
561
562
562
562.5
562.5
563
563.5
563.5
563.5
564.5
564.5
564.5
564.5
565
565.5
565.5
566
566.5
567
567
567
568
568
568
568
568.5
569
569
569.5
570
570.5
570.5
571
572
572.5
573
573
574
574
574.5
574.5
575
575
575
575.5
575.5
575.5
575
575.5
576
576
576.5
576.5
577
577
576.5
577
577
577.5
578
580
581.5
584
585.5
588.5
590.5
592.5
594
594.5
595.5
594
593
591
589
586.5
583.5
581.5
579.5
577.5
576
575.5
575
575
574.5
575.5
575.5
575.5
575.5
575.5
575.5
575
574.5
574.5
575
578
583.5
597
612.5
632
651.5
666
675.5
672
662.5
643.5
624
604
586.5
576.5
568.5
567
565
566
566.5
567
567
568
568.5
569
568.5
569
569
569
569
569.5
569.5
569.5
569
569.5
570
570
570
571
572
573.5
575
578
581
584.5
588
592.5
597
601
604.5
608.5
612
614.5
617
619
620.5
621
621
621
620.5
619
616.5
614
611
606.5
602
597
592
586
580
575.5
570.5
567
563
561
559.5
558
557.5
557.5
558
558
558
558.5
559
559
559
559.5
560
560.5
560.5
561.5
562
562
562
562.5
563
563
563
564
564.5
565
565
565.5
566
566
566
566.5
567
567
567
567.5
568
567.5
567.5
567.5
568.5
568.5
569
569.5
570
570
570
570.5
571
570.5
570.5
570.5
571
571
571
571.5
572
572
572
572.5
573
573
573
573.5
573.5
573.5
573
573.5
574
574
574
574.5
575
575
575
575
575.5
575
575
575.5
576
576
576.5
577
577.5
578
578
579.5
580.5
582
584
587.5
591
595.5
600
606
611
615
618
619.5
620
618
615
611.5
606
600
594
589
584.5
581
578.5
577.5
576.5
576
575.5
576
576.5
576.5
577
577.5
578
577
577
576
576.5
580.5
589
602.5
620
640.5
660
676
682
681
670
653.5
634.5
613
597
583.5
576
570.5
568.5
568.5
569
569.5
569.5
570.5
570
570.5
570.5
571
571
571
571
571.5
571
571
571
571.5
571
571.5
571.5
572.5
573
573.5
576
577.5
580.5
583
587
590.5
594
597.5
600.5
604
606.5
608.5
610.5
612.5
612.5
613.5
613
613.5
611.5
610.5
608
606
602.5
599
595
591.5
586.5
582
578
573.5
570
566
564.5
562.5
562
560.5
561
561
561
561
561.5
562
562
562
562.5
562.5
563
563
563.5
564.5
564
564.5
564.5
565.5
565
565.5
565.5
566
566
565.5
566
566.5
566
566
566.5
566.5
567
566.5
567.5
567.5
567.5
567.5
567.5
568
568
567.5
568.5
568.5
569
568.5
569.5
569.5
570
569.5
570.5
570.5
570.5
570.5
570.5
571
571
570.5
571
571.5
571
571.5
572
572.5
573
572.5
573.5
573.5
573.5
573.5
573.5
574
573.5
573.5
573.5
574.5
574
574.5
575
575.5
575.5
575.5
575.5
576
576
575.5
576.5
576.5
577
577.5
579
581.5
584
587
591
595
598
600.5
602.5
604
603.5
603
601
599
595
591
587
583.5
580
577
576
574.5
574
573.5
573.5
574
573.5
573.5
573.5
574
573.5
573
572.5
572.5
574
577
587
598
616.5
635
654.5
670.5
676
678
665
651.5
629
608
591
576.5
569
563
562
562.5
562.5
563
563.5
563.5
563
563
563
564
563.5
564.5
565
565.5
565.5
565.5
566
566.5
566.5
567
568
569
570.5
572.5
577
581
587
593
600
607
613.5
619.5
625
629
632
634.5
636.5
637.5
638
638
637.5
636.5
634
631.5
628.5
624.5
619.5
613.5
608
601
594.5
587
582
576
571.5
568
565.5
564
562.5
562.5
562.5
563
563.5
564
565
565
565.5
565.5
566.5
566
566.5
566.5
567
567
567
567.5
567.5
567.5
567
567.5
567.5
567.5
567.5
567.5
568.5
568
568
568.5
568.5
568.5
568.5
568.5
569
569
568.5
569
569
569
569
569
569.5
569
569.5
569.5
570.5
570
570.5
570.5
571
571
571
571.5
572
572
571.5
572
572
572
572
572.5
572.5
572.5
572
572.5
573
573.5
573.5
574.5
575
575
575
575.5
575.5
575.5
575.5
575.5
576.5
576
576
576.5
576.5
576.5
576
576.5
577
577
577.5
578.5
580
582
584
587.5
590.5
593.5
596
598.5
601
601
601.5
599.5
598.5
595
591.5
588.5
585
582
579
577.5
576.5
575.5
575
575
575.5
575
575.5
575.5
576
575.5
575
575
574.5
575
575
580.5
586.5
600
615
634
654
665
675.5
670
662
642.5
621
602.5
584
574
565.5
563.5
563.5
564
565
565.5
566.5
566
566.5
566.5
567.5
567
567.5
567.5
568.5
568
568
568.5
568.5
569
568.5
569.5
570
570.5
571.5
573.5
576
579.5
582.5
588
592.5
597.5
602
607
612
615.5
619.5
622
625.5
626.5
628
628.5
629
627.5
626.5
624
622
617.5
613.5
608
603.5
597
591
585
579
573
567.5
563.5
560.5
558
556.5
556
555.5
555.5
554.5
555
554.5
554
553.5
553.5
553.5
553.5
553
554
554.5
554.5
555.5
556.5
557.5
558
558
558.5
558.5
558.5
558.5
559
559.5
559.5
560
561
561.5
561.5
562
562.5
563
563
563
564
564
564.5
564.5
565.5
566
566.5
567
568
568.5
568.5
569
569.5
570
570
570.5
571
572
572
573
573.5
574
574
574.5
574.5
574.5
574
574.5
574.5
574.5
574.5
574.5
575
575
574.5
575
575
575
575
575
575.5
575
575.5
575.5
576
575.5
575.5
575.5
576
576
576.5
577
578.5
579.5
581
583.5
586
588.5
591
593
595.5
596
596.5
596.5
595.5
593.5
591
588.5
586
583
580.5
578.5
577
576
575
575
575
575
574.5
575.5
575.5
575.5
575.5
575
575
574.5
574
577
579.5
588.5
599.5
617
637
653.5
669.5
674
673
659.5
641
620.5
599.5
585
572.5
567.5
565.5
565.5
565.5
566.5
567
567
567.5
567.5
568.5
568
568.5
568.5
569.5
569
569.5
569.5
570
570
569.5
570.5
570.5
571
571
573
574.5
577
579.5
583
587.5
591
595.5
600
604.5
608.5
612
615
618.5
620
621.5
623
623.5
623.5
622.5
621.5
620
617
614
610
606
600.5
594.5
589.5
583.5
578
572
568.5
564.5
562
559.5
558.5
558
558
557.5
558.5
559
559
559
559.5
559.5
559.5
559.5
559.5
560.5
560.5
560.5
561.5
562
562
562.5
562.5
563.5
563
563.5
563.5
564.5
564
564.5
564.5
565.5
565
565.5
565.5
566.5
566
566.5
566.5
567
567
566.5
567
567
567
566.5
567.5
567.5
567.5
567.5
567.5
568.5
568.5
569
569.5
570
570
570
570.5
571
571
571
571.5
572
572
572
572.5
573
573
573
573.5
574
574
574.5
575
575.5
575.5
575.5
576
576.5
576
576
576.5
576.5
576.5
576.5
577
577.5
578
578.5
580
582
584
587.5
592.5
597
602.5
607.5
612.5
617
619
620.5
620
618
614
609
603.5
597.5
591
586
581.5
578.5
576
574.5
574.5
574
574
573.5
574
574
574
574
574.5
574
573.5
574.5
575.5
579.5
588.5
602.5
622
641.5
661.5
675
679.5
673
657.5
635.5
614.5
595
580.5
572
568.5
568
568.5
569
570
570
570
570
570
570
570
570.5
570.5
570.5
570
570.5
571
571
571
571
571.5
571.5
571.5
573
573.5
575.5
577
580
583
586
589.5
593
597
600
603
606
608.5
610.5
612
613.5
614.5
614.5
614
613.5
612.5
610.5
608
605.5
602.5
599
594.5
590.5
586
581.5
576.5
573
569.5
566.5
564
563
562
561.5
561
561.5
561.5
562
561.5
562
562.5
562
562
562.5
562.5
563
562.5
563
563.5
563
563.5
563.5
564.5
564
564.5
565
565.5
566
565.5
566.5
566.5
566.5
566.5
566.5
567
567
566.5
567.5
567.5
567.5
567.5
567.5
568
568
568
568.5
569
569
569
569.5
570
570
569.5
570.5
570.5
570.5
570.5
570.5
571
571
570.5
571.5
571.5
572
571.5
572.5
572.5
572.5
572.5
572.5
573.5
573
573.5
573.5
574
574
573.5
574
574
574
574
574.5
575
575
574.5
575
575
575
575
575.5
576.5
577.5
579
582.5
585.5
589.5
593
597
601
603
605
605
605.5
603
601
597.5
594.5
590
586
583
580
578
576
575.5
575.5
575
575
575.5
575.5
575.5
575
575
575
574.5
573.5
575.5
576.5
584.5
595
614
636
658
680
690.5
695
683.5
666.5
642
618
597
579
570.5
564.5
563.5
562.5
563
564
563.5
564
564.5
565
565
565.5
566
566.5
566.5
566.5
567
567.5
567
567.5
567.5
568
568
568.5
570.5
572.5
575.5
579.5
584.5
590.5
596.5
603.5
610
616.5
621.5
626.5
630
633
635
636.5
638
638
637.5
636.5
635
633
629.5
625.5
621.5
616
610
603.5
597.5
591
584
578
573
568.5
565.5
563
562.5
561.5
562
562.5
563.5
564
564.5
565
565.5
565.5
565.5
565.5
566
566
565.5
566
566
566
566
566.5
566.5
567
566.5
567
567
567
566.5
567
567
567
567
567.5
568
568.5
568.5
569
569.5
569
569.5
569.5
570.5
570
570.5
570.5
571
571
571
571.5
571.5
571.5
571
571.5
572
572
572
572.5
572.5
573
572.5
573.5
573.5
574
573.5
574
574.5
574
574
574.5
574.5
574.5
574.5
574.5
575
575
575
575.5
576
576
576
576.5
576.5
576.5
576
576.5
576.5
576.5
576
576.5
576.5
577.5
577.5
580
582
585
587.5
591.5
595
597
599.5
600
601
599.5
598
595.5
593
589
585.5
582
579.5
577
575
574.5
574
573.5
573
573.5
573.5
574
573.5
574.5
574.5
574
573.5
573.5
573.5
577
581.5
595
610
630
650.5
665.5
678
674.5
668.5
649.5
630.5
610
590
579
569
566
563
563.5
564
564.5
565
565.5
566.5
566
566.5
566.5
567.5
567.5
567.5
568.5
568.5
568.5
568.5
568.5
569.5
569.5
570
571
572
573.5
575
578.5
582
586.5
590.5
596
601
605.5
610
614
618.5
621
624
626
628
628
628.5
627.5
627.5
624.5
622.5
619
615.5
611
605.5
600.5
595
588.5
582.5
577
572
567.5
563.5
561.5
559.5
559
557.5
558
557.5
557.5
557
557
557
556.5
556
556
555.5
555
554.5
554.5
555
554.5
555
555.5
556.5
556.5
557.5
558
559
559
559.5
560.5
561
561
561
561.5
561.5
562
562
562.5
563
562.5
562.5
563.5
563.5
563.5
564
564
565
564.5
565.5
565.5
566.5
566
566.5
567.5
567.5
568.5
568
569.5
569.5
570
570
571
571
571.5
572
572.5
573
573
573.5
574
574
574
574.5
574.5
574.5
574.5
574.5
575
575
575
575.5
575.5
575.5
575.5
575.5
576
576
575.5
576
576.5
576.5
577
578.5
579.5
582
583.5
586.5
589
591
593
594.5
595.5
595.5
594.5
593.5
591.5
589
586
583.5
581
579
577
576.5
575.5
575.5
574.5
575
575.5
575
575.5
575.5
576
575.5
575
574.5
574.5
575.5
578
586.5
596.5
612.5
629
646.5
661
665
666
654
641
622
603
589.5
576.5
571.5
566.5
566
566
566.5
567
567.5
568
568
567.5
568.5
568.5
569
568.5
569
569
569
569
569.5
570
569.5
569.5
570
571
572
573
575.5
578
581.5
585
589.5
594.5
598.5
603
607
611
614
616.5
619.5
621.5
623
623.5
624
624
622
620.5
617.5
615.5
611
607
602.5
597.5
592
586
581
575.5
571
566
563.5
561
559.5
558
558
558
558
558.5
559
560
559.5
559.5
559.5
560
560
560
560.5
561
561
561.5
562
562.5
563
562.5
563.5
564
564
564
564.5
565
565
565
565.5
566
566
566
566.5
567
567
567
567.5
568
568
568
568.5
568.5
568.5
568
568.5
569
569
569
569.5
569.5
570
569.5
570.5
571
571
571
571.5
571.5
571.5
571.5
572
572.5
573
572.5
573.5
573.5
573.5
573.5
573.5
574.5
574
574.5
574.5
575
575
575
575.5
576.5
576
577
577.5
578
578.5
578
579
579
579.5
580.5
583
586
590
594.5
600.5
606
611
615.5
618.5
620.5
619.5
618
614.5
610.5
604.5
599
593.5
588.5
583.5
579.5
577.5
575.5
574.5
574
574
574
574
574
574.5
575
574.5
574.5
574.5
574.5
576.5
581.5
590
602
618.5
637
655
668
676
675.5
667
652
631
611.5
594
581
573
568
567.5
568.5
568.5
569.5
570
570
570
570
570.5
570
570.5
570.5
571
571
571
571.5
572
572
572
572.5
572.5
573
573
574.5
576
578
580.5
583.5
587
590.5
593.5
597.5
601
603.5
606.5
608.5
611
612
613
613.5
614.5
613.5
613
611.5
610
607
604
600.5
597
592.5
588
583.5
579
574.5
570
567.5
565
563.5
562
562
561.5
562
561.5
562
562.5
562
562
562.5
562.5
562.5
562.5
562.5
563
563
562.5
563.5
563.5
564
563.5
564.5
564.5
565
564.5
565.5
565.5
566
565.5
566.5
566.5
566.5
566.5
566.5
567.5
567
567.5
567.5
568.5
568.5
568.5
569.5
569.5
570
569.5
570.5
570.5
570.5
570.5
570.5
571.5
571
571.5
571.5
572.5
572
572
572.5
572.5
572.5
572.5
572.5
573
573
572.5
573.5
573.5
573.5
573.5
573.5
574
574
574
574.5
575.5
575
575.5
575.5
576.5
576
576.5
576.5
577
577
576.5
577
577.5
577.5
577.5
579
580
582.5
584.5
588.5
592
595.5
599
602
604.5
605
605
603.5
602
598.5
594.5
591
587
583.5
579.5
578
576
575
574
574
574
574
573.5
574
574
573.5
573
572.5
572
572
572.5
578.5
585.5
600.5
618.5
640.5
663.5
678
690.5
686.5
678.5
657
633
610.5
589
576.5
565.5
563
561.5
562
562.5
563
563.5
563
563
563
563.5
563
563.5
564
564.5
565
565
566
566.5
566.5
567
567.5
568.5
569
570.5
573.5
577
581.5
587
593.5
600.5
606.5
613.5
619
624.5
628
632
634.5
636
637.5
637.5
638
637
635.5
633
631
627
622.5
617
611.5
605.5
598.5
591.5
585.5
579
573.5
569
565.5
563.5
561.5
561
561.5
561.5
562
563
563.5
564
564.5
565
565.5
566
565.5
566.5
566.5
566.5
566.5
566.5
567
567
567
567
567.5
567
567
567.5
567.5
568
567.5
568.5
568.5
569
569
569.5
570
570
570
570
570.5
570
570
570.5
570.5
570.5
570.5
570.5
571.5
571
571.5
571.5
572
572
571.5
572
572.5
572
572.5
572.5
573
573
572.5
573
573
573
573
573.5
574
574
574
574
574.5
574
574
574.5
575
575
575
575.5
575.5
575.5
575.5
575.5
576
576
575.5
576
576.5
576
576
577
578
579.5
581
584
587
590.5
593.5
597
599.5
601
601.5
601
600.5
597
594.5
591
587.5
584
580
578
576
575
574
574
574.5
574
574
574.5
575
575
575
575
575
574.5
574
576.5
579.5
589
601
620
641
658
675.5
678
678
662
643
621
599.5
584
571
566.5
564
564
564.5
565
566
566
566
566
566.5
566
566
566.5
567
567.5
567.5
568.5
568.5
569
568.5
569.5
570
570.5
571
573
574.5
577.5
579.5
584.5
588.5
593.5
598
603
608
612
616
619.5
623
625
626.5
628
629
628.5
628
626.5
625
621.5
618.5
614
610
604
598
592.5
586.5
580.5
574.5
570
565.5
562.5
559
558
556.5
556
555
555
555
554
554
554
554
553.5
553.5
553
554
553
554
554.5
555.5
556
556.5
557
557.5
557.5
557.5
558.5
559
559
559.5
560
560.5
560.5
561
562
562.5
562.5
562.5
563
563
563
563
563.5
564
564
564.5
565
565.5
565.5
566
567
567.5
568.5
569
570.5
571
571.5
572
573
573
573.5
573.5
574
574
574
574.5
574.5
574.5
574.5
574.5
575
575
574.5
575
575
575
575
575.5
576
576
576
576
576
576
575.5
576
576.5
576
576.5
577
577.5
578.5
579
581
583.5
585.5
588.5
591
594
595.5
597
597
597.5
595.5
594
591.5
589
586
583
581
579
577.5
576
575.5
575.5
574.5
574.5
574.5
575
574.5
574.5
574.5
574.5
574.5
573.5
575
576
581.5
589.5
605
623
642.5
662
673
679
670
656.5
635
614
595.5
579.5
571.5
566.5
565.5
565
566
567
567
567
567.5
567.5
568
567.5
568
568.5
568
568.5
568.5
569.5
569
569.5
569.5
570.5
570.5
570.5
572
573
575
577
580.5
584
588
592
596.5
601.5
605
609
612.5
616.5
618.5
621
622.5
624
624
623.5
623
621.5
619
616
612.5
609.5
604
599.5
594
588.5
583
576.5
572.5
567.5
564.5
560.5
559.5
558
557.5
557
557.5
558
558
558
558.5
559
559
559
559.5
560
560
560
560
560.5
560
560.5
561
562
562
562
562.5
563
563
563
563.5
564
564
564
564.5
565
565
565
565.5
566
565.5
565.5
565.5
566
566
566.5
567
568
568
568
568.5
569
569
569.5
570
570.5
571
570.5
571.5
571.5
572
571.5
572.5
573
573
573.5
574
574.5
574.5
574.5
574.5
575
574
574
574
574
574
574
575
575.5
575.5
576
577
577.5
578
578
578.5
579
578.5
579
579.5
580.5
582
584.5
588.5
593
597.5
602.5
607.5
611.5
614
616
616
615
612
608.5
604.5
600
594.5
589.5
585.5
581.5
579
576.5
576
575.5
575
575.5
575.5
576
575.5
576
576.5
575.5
575.5
575.5
575.5
578
583.5
595.5
610.5
630
650
667
678
676.5
668.5
650.5
631.5
611.5
593.5
581.5
573
570
567.5
567.5
568
568
568.5
568.5
569.5
569
569.5
569.5
570
570
569.5
570
570
570
570
570.5
571
571
571.5
572
573
574
575
577.5
580.5
583
586.5
590
594.5
597.5
601.5
604.5
608
610
612.5
614
616
616.5
616.5
616.5
616.5
614.5
613
610.5
607.5
603.5
599.5
595
591
585.5
580.5
576
571.5
568
564
562.5
561
560
559.5
559.5
560
560
560
560.5
561
560.5
560.5
560.5
561
561
561
561.5
562
562
562
562.5
563.5
563
563.5
564
564.5
565
565
565.5
566
566
565.5
566.5
566.5
566.5
566.5
566.5
567.5
567
567.5
567.5
568
568
567.5
568.5
568.5
569
568.5
569.5
569.5
570
569.5
570.5
570.5
571
570.5
571.5
571.5
572
571.5
572.5
572.5
573
572.5
573
573.5
573
573
573.5
573.5
573.5
573.5
573.5
574.5
574
574.5
574.5
575.5
575
575
575.5
576
576
576
576.5
576.5
576.5
576.5
577
577.5
578.5
578.5
581
583.5
586.5
590
594
598
600.5
603.5
604.5
606.5
604.5
603.5
600.5
597.5
593.5
588.5
585
581.5
578.5
576.5
575.5
575
575
574.5
575.5
575.5
576
575.5
576.5
576.5
576
575.5
575.5
575.5
579
585.5
598.5
614.5
634
654.5
670
680.5
679
671.5
654
635
612
592.5
578
567.5
562
558.5
559
560
561
562
563
563.5
563.5
564
564
565
564
564.5
564.5
565
564.5
565
565.5
566
566.5
567
568.5
569.5
571.5
574
577
581
584.5
589.5
594
598.5
603
608
612
615.5
618
621
622.5
623.5
623.5
623.5
622.5
621
618
614.5
611
606.5
601.5
596.5
592.5
587
583
578.5
575
571.5
568.5
566.5
565
564
563
563
563
563
562.5
563
563.5
563
563.5
563.5
564
564
564
564.5
565
565
565
565.5
566
566
566
566.5
566.5
567
566.5
567
567.5
567
567.5
567.5
568
568
568
568.5
569
569
568.5
569
569
569
569
569.5
570
570
570
570.5
571
571
570.5
571
571
571
571
571.5
572
572
572
572.5
573
573
573
573.5
574
574
573.5
574
574
574
574
574.5
575
575
574.5
575.5
575.5
576
575.5
576.5
576.5
577
576.5
577
577
576.5
576.5
576.5
577
577
577
578.5
580
582.5
585
589
593
596
599
601
603.5
603
603
601
599
595
591
587.5
584
581
578
576.5
575.5
574.5
574
574
574.5
574
574
574.5
575
575
574.5
574.5
574
575
577
586
595.5
613.5
631.5
651.5
670.5
676.5
681.5
668.5
655.5
633
610.5
593.5
577
570
563
563
563
563.5
564.5
565
566
566
566
566.5
567
567
567
567
567.5
567
567
567.5
567.5
567.5
567.5
568
569.5
570.5
572
575.5
579
583.5
588.5
594.5
601
606.5
613
618.5
624
628
632.5
636
639.5
641.5
643
644
644.5
643
641.5
638.5
635.5
629.5
624
617
609.5
601
592
583.5
575.5
567.5
561
557
553
551
549.5
549.5
549.5
549.5
550
550.5
551
551
551
552
552.5
553
553.5
554.5
555
556
556.5
558.5
559
560
561
562
563
564
565
566
567
567
568
569
569
569.5
569.5
570
570
570
570
570.5
570
570
570.5
570.5
571
570.5
571
571
571
571
571.5
572
572
572
572.5
573
573
573
573.5
573.5
573.5
573.5
573.5
574
574
573.5
574.5
574.5
574.5
574.5
574.5
575
575
575
575.5
576
576
576
576
576
575.5
575
575.5
575.5
575.5
575.5
575.5
576.5
576.5
577
578
579.5
580.5
582.5
585.5
588.5
591.5
594.5
596.5
599.5
599.5
600
599
597.5
594.5
591
588
584.5
582
578.5
577.5
575.5
575
573.5
574
574
574
574
574.5
575
574.5
574.5
574
574
574
574
579
583.5
596
609.5
628
648.5
660.5
673
670
664
646.5
625.5
607
587.5
577
567
565
564
564.5
565
565.5
566
566
566
566.5
567
567
567
567.5
568.5
568
568.5
568.5
569
569
568.5
569.5
569.5
570.5
571
573
575.5
578
581.5
586
590.5
595
599.5
604
609
612.5
615.5
619
621.5
623.5
624.5
625.5
626.5
625.5
624.5
623
620.5
617
613
608.5
603.5
598
591.5
586
580
574.5
569
565.5
562.5
560
558
557.5
557
556.5
556.5
557
557.5
558
558
558.5
559.5
559
559.5
560
560.5
560.5
560.5
560.5
561.5
561
561.5
562
562.5
563
563
563.5
564
564
564
564.5
565
564.5
564.5
564.5
564.5
564.5
564.5
565.5
566
566
566.5
566.5
567.5
566.5
567
567
567.5
567.5
567.5
568.5
568.5
568.5
568.5
569
569.5
569.5
570
570.5
571
571
571.5
572
572.5
572
572
572.5
572.5
573
572.5
573.5
573.5
573.5
574
574.5
575
574.5
575
575
575.5
575.5
575.5
576.5
576
576.5
576.5
576.5
576.5
576.5
577
578
579
580
582.5
585
587.5
590.5
593
595.5
596.5
597
596.5
596
593.5
591.5
588.5
586
583
580.5
578.5
577.5
576
575.5
575
575.5
575
575
575.5
575.5
575.5
575.5
575
575.5
574.5
574.5
576.5
579
586
596.5
613
632.5
650.5
668
675
676.5
664.5
647
625.5
604.5
588
575
569
566.5
566.5
567
567.5
568
568
567.5
568.5
568.5
569
568.5
569.5
569.5
569.5
569.5
569.5
570
570
569.5
570
570
570.5
570.5
572.5
574
576
578.5
582
586
590
594
598
602.5
605.5
609
612
615.5
617
619
620.5
621.5
621.5
621
619.5
618.5
615
612.5
608.5
605.5
600
595.5
590
585
579.5
574
570
566
563
560.5
559.5
559
558.5
558
558.5
559.5
559.5
560
560.5
561
561
561
561.5
562
562
562
562
562.5
562
562
562.5
563
563
562.5
563
563
563
563.5
564
565
565
565
565.5
566
566
566
566.5
567
567
567
567.5
567.5
567.5
567
567.5
568
568
568
568.5
569
569
569
569.5
570
570
570
570.5
571
571
571
571.5
572
572
572
572.5
573
573
573
573.5
573.5
573.5
573
573.5
573.5
574
573.5
574
574.5
574
574.5
575
575.5
575.5
575.5
575.5
576
575.5
575.5
576.5
578
580
583
587
592
596.5
601.5
606.5
610.5
613
615
615
614.5
611
607
602
596.5
591
585.5
582
579
576.5
575
575
574.5
574.5
574.5
575
575.5
575.5
576
576
576
575
574.5
576
578
587
600
619.5
640.5
661
677.5
683.5
680
665
643.5
620.5
598.5
581.5
569.5
564.5
563.5
563
564.5
566
567.5
568
569
569.5
570
570
570.5
570.5
571
571
571.5
572
572
572
572.5
572.5
573
572.5
573.5
574.5
575.5
577
579.5
582
584.5
588
591
595
598
601
604.5
607
609.5
611
612.5
613.5
613.5
613
612
611.5
609
607
604
601.5
597.5
593.5
590
585.5
581
576.5
572.5
569
566.5
563.5
563
561.5
561.5
560.5
561
561.5
561
561.5
561.5
562.5
562
562.5
562.5
563
563
563
563.5
564
564
564
564.5
565
565
565
565.5
566
566
566
566
566.5
566
566
566.5
567
567
567
567.5
568
568
568
568.5
568.5
569
568.5
569
569.5
569
569.5
569.5
570.5
570
570.5
570.5
571.5
571
571
571.5
571.5
572
571.5
572
572.5
572
572.5
573
573.5
574
573.5
574.5
574.5
574.5
574.5
574.5
575
574.5
574.5
574.5
575
574.5
574.5
574.5
575.5
575
575.5
575.5
576
576
575.5
576
576.5
577
578.5
581.5
585
589
593
597
601.5
603
605
605.5
605.5
603.5
601
598
594.5
590.5
586
583
580
578
576
576
575.5
575.5
575.5
575.5
576.5
576
576
576
576
575
574
574.5
575
581
589.5
607.5
627.5
650.5
672.5
685.5
693.5
684
670.5
646.5
623
601.5
582
572.5
565
563.5
562
563
563.5
564
564
564.5
565
565
565
565.5
566
566
566.5
567
567.5
567.5
567.5
567.5
568.5
568
569
570.5
572.5
575.5
579
584.5
590.5
596.5
603.5
610.5
617.5
623.5
629.5
635
639.5
642.5
645.5
647.5
648.5
648.5
647.5
646
644
640.5
636.5
632.5
627
620.5
613
605.5
597
588
579.5
572
565
559.5
555.5
553.5
552.5
552
552.5
553
554
554.5
555.5
557
558
559
560
561.5
562
563
564
565
566
566
567
567.5
568
568
568
568.5
568
568.5
568.5
569
569
569
569.5
570
570
570
570
570.5
570
570.5
570.5
571
571
570.5
571
571
571
571
571
571.5
571
571
571.5
572
572
572
572.5
572.5
572.5
572.5
572.5
573
573
573
573.5
574
573.5
573.5
573.5
574
574
574
574.5
575
575
575
575
575.5
575
575
575.5
575.5
575.5
575.5
575.5
576.5
576
576.5
576.5
577.5
577.5
578.5
580
582.5
584.5
587.5
590.5
594
596.5
598.5
600
601.5
600
599.5
597
595
591
587.5
584
581
578.5
576.5
575.5
575.5
574.5
574.5
574.5
575
575
574.5
575
575
574.5
574
574
574
576.5
580.5
592.5
605.5
625
643.5
659.5
673
671
667.5
650
632.5
612
592.5
580.5
570
566.5
563.5
564
565
565.5
566
566.5
567
567
566.5
567.5
567.5
567.5
567.5
567.5
568
568
567.5
568.5
568.5
569
569
570.5
571.5
573.5
574.5
578
581
585
589
594
599
603.5
608
612
616.5
619
622
624
626
626.5
627
627
626.5
624.5
622
618.5
615.5
610
605.5
600
595
588.5
582.5
577
571.5
567.5
562.5
560.5
558.5
557
556.5
556.5
557
557
557
557.5
558
558.5
558.5
559.5
559.5
560
559.5
560.5
560.5
561
560.5
561.5
561.5
561.5
561
561.5
561
561
560.5
561
561.5
561.5
562
562.5
563
562.5
562.5
563
563
563
563
563.5
564
564
564.5
565
565.5
565.5
566
566.5
567.5
567.5
568
568.5
569
569
569
570
570
570
570
570.5
571
571
571.5
572
572.5
572
572.5
572.5
573
573
573
574
574
574.5
574.5
575.5
575
575.5
575.5
576
576
575.5
576
576
576
576
576.5
576.5
577
577
578
579.5
581
583
585.5
588
590
592
593.5
595
595
594.5
593.5
592
589.5
587
584.5
582
580
577.5
577
576
575.5
575
575
575.5
575
575
575.5
575.5
575.5
575
575
574.5
575.5
577
585
593.5
609
625
642.5
659
665
669
660
648
630
610.5
595
581
573.5
567.5
566
566
566.5
567
567.5
568
568
567.5
568
568.5
568
568.5
568.5
569
569
569
569.5
570
570
570
571
571.5
572.5
573
575.5
577.5
581
584
588.5
593
597
601
605.5
609.5
612.5
615
617.5
619.5
621
621.5
622
622
620.5
619
617
614.5
611
606.5
602.5
597.5
592.5
586.5
581.5
576.5
571.5
566.5
564
553
557.5
575.5
574.5
576.5
577.5
586
596
615
636.5
566.5
630.5
557
558.5
559.5
561
561.5
563
564
565
565.5
566.5
567.5
568
568.5
568.5
569.5
569
569
569.5
569.5
569.5
569.5
569.5
570
569.5
569.5
569.5
570
570
570
570.5
571
571
571
571.5
572
572
572
572.5
572.5
572.5
572
572.5
572.5
572.5
572
572.5
573
572.5
572.5
572.5
573
573
573
573.5
574
574
573.5
574
574
574
574
574.5
575
575
574.5
575.5
575.5
575.5
575.5
575.5
576.5
576
576
576.5
577
577
577
578
579
580.5
582
585.5
588.5
592
594.5
597.5
600
600.5
601
600.5
599.5
597
593.5
590.5
587.5
584
581
579.5
577.5
576.5
575
575.5
575.5
575.5
575
575.5
575.5
575.5
575
575
575
574.5
574
578
582.5
594.5
608
628
649.5
664
679
678
674
655.5
634.5
613
592
579.5
568
565.5
564
564.5
565
566
567
567
567
567.5
568
567.5
567.5
567.5
568
567.5
567.5
567.5
568.5
568
568
569
569.5
570.5
571
573
575
578
580.5
585.5
590
594.5
599.5
604.5
610.5
614.5
619.5
624
628
631
633.5
635.5
637
637
636
635
632.5
629
624
619.5
613.5
606.5
599
591.5
584
576
568.5
563
557.5
553.5
550.5
549
548.5
547.5
548
548.5
549.5
549.5
550
550.5
551.5
551
552
552.5
553.5
553.5
554
555
556
556.5
557.5
559
559.5
560.5
561
562.5
563.5
564
565.5
566.5
567.5
568
569
569.5
570
570
570.5
571
570.5
570.5
570.5
571
570.5
570.5
570.5
571
571
571
571.5
572
572
572
572.5
572.5
572.5
572
572.5
573
573
573
573
573.5
573
573
573.5
573.5
573.5
573
573.5
574
574
574
574.5
575
575
574.5
575.5
575
575.5
575
575.5
576
576
575.5
576.5
576.5
576.5
576.5
577
578
579
580
583
586
589
592
595.5
598.5
600
601.5
601
601.5
598.5
596
593
589.5
586
582
580
578
576.5
575
575
575
575
574.5
575.5
575.5
575.5
575.5
575.5
575.5
575
573.5
576
577.5
586
595.5
614
633.5
653
671.5
679
682
669
652
630
607.5
590.5
574.5
568.5
564
563.5
563.5
564
565.5
565
565.5
565.5
566.5
566
566
566.5
567
567
567
567.5
568
568
567.5
568.5
568.5
569
569
570.5
572.5
574.5
577
581.5
585.5
590.5
595
600.5
606
610
614.5
618.5
622.5
625.5
628
630.5
632.5
632.5
633
631.5
631
627.5
624
620
615.5
609.5
603
596.5
589.5
582.5
575
569
563
558
553.5
551.5
550
548.5
548.5
549
549.5
549.5
550
550.5
551.5
551
551.5
552
552
552
552
552.5
553.5
553.5
554
555
555.5
555.5
556
556.5
557
557
558
559.5
560.5
561.5
562
563.5
564.5
565
566.5
567.5
568
568.5
569
570
570
570.5
570.5
571.5
571
571.5
571.5
572
572
572
572.5
573
572.5
572.5
572.5
573
573
573
573.5
573.5
573.5
573
573.5
574
574
574
574
574.5
574
574
574.5
574.5
575
574.5
575.5
576
576
575.5
576
576
576
575.5
576
576
576
576
576.5
577.5
578
579
581
583.5
586
588.5
592.5
595.5
598
599.5
600.5
601
599.5
597.5
595.5
592.5
589
584.5
582
578.5
577
574.5
574.5
574
573.5
573
573.5
574
574
574
574.5
574.5
574
573
573.5
574.5
578.5
585
599.5
616
636
656
669
679
673
663.5
644
623.5
603.5
585
575
567
565
563
564
565
565
565.5
566
567
567
567
567.5
568
567.5
567.5
568
568.5
568.5
568
568.5
569
569
569
570.5
571.5
573.5
575
579
582.5
587.5
591.5
597
602.5
606.5
611.5
615.5
620
622.5
625
627
628.5
628.5
628.5
627.5
627
624
621.5
618
615
609.5
604.5
598.5
593
586.5
579.5
574.5
568.5
564
559.5
557
554.5
553
551
551.5
551
551
551
552
552.5
553
553
554
554.5
554.5
554.5
555.5
555.5
555.5
555.5
556
556.5
556.5
556.5
557.5
557.5
557.5
557.5
558.5
558.5
559
559
560
560.5
561
561.5
563
564
564.5
566
567
568
568.5
569.5
570.5
571
571.5
571.5
572.5
572
572
572.5
572.5
573
572.5
573
573
573
572.5
573.5
573.5
573.5
573.5
573.5
574
574
574
574.5
575
574.5
574.5
574.5
575
575
574.5
575
575
575
575
575
575.5
575
575
575.5
576
576
575.5
576.5
576.5
577.5
577.5
579.5
581
583.5
585.5
589
592.5
594.5
597
598.5
600
599.5
598.5
597
595
591.5
588
585
582
579.5
577
576.5
575.5
575
574.5
574.5
575
575
574.5
575
575.5
574.5
574
574
574
575.5
578.5
588
599
616.5
634
651
666.5
668
668.5
653.5
639.5
618.5
599
586
573.5
569.5
565
565.5
566
566
566.5
566.5
567.5
567
566.5
567
567
567
566.5
567.5
567.5
568
567.5
568.5
568.5
568.5
568.5
569
570.5
571.5
572.5
576
578.5
582.5
586
591
596.5
600.5
605.5
609.5
614
617
619.5
622.5
624.5
626
626.5
627
627
625
623
620.5
617.5
613
608
603
597.5
591.5
584.5
579
573
568
563
560.5
558
556.5
554.5
554.5
554
553.5
553
553.5
553
553
552.5
553
553.5
553.5
554
555
555.5
556
556
557
557.5
557
557.5
558
558.5
558.5
558.5
559
560
559.5
560.5
561
562
561.5
562
562.5
562.5
562.5
562.5
563.5
564
564.5
565
566
567
567.5
568.5
570
570.5
571
571.5
572
572
572
572.5
573
573
573
573.5
573.5
573.5
573
573.5
573.5
573.5
573.5
573.5
574
574
573.5
574.5
574.5
574.5
574.5
574.5
575
575
574.5
575.5
575.5
575.5
575.5
575.5
576
576
575.5
576
576.5
576.5
577
578.5
579.5
581.5
583
586
589.5
592
594.5
597
599
599
599
597.5
596.5
593
590
587
584
581
578
577
575.5
575
574
574.5
574.5
574.5
574.5
574.5
575.5
575
574.5
574.5
574
574
574
580
585.5
599.5
613.5
632.5
651.5
661.5
671
664.5
657
637.5
617.5
600
582.5
573.5
565
564
563.5
564.5
564.5
565.5
566
566
566
566.5
567
567
567
567.5
568.5
568
568.5
568.5
569.5
569
569
570
570.5
571.5
572
574.5
577
580.5
583.5
588.5
593.5
598
603
608
612.5
616
619
622
625
626
627
627.5
628
626.5
625.5
623
621
616.5
612
607
602
595.5
589.5
583
577.5
571.5
566
563
559.5
558
555.5
556
555.5
555.5
555.5
555.5
556.5
556
556
556.5
556.5
556
555.5
555.5
555.5
555
554.5
555
555
555
555.5
556.5
557
557.5
557.5
558.5
559
559
559
560
560
560.5
560.5
561.5
562
562
562
563
563.5
563.5
564
565
565.5
566
566.5
567.5
568
568.5
569
570
570.5
570.5
571
572
572.5
572.5
573.5
573.5
574
574
574.5
575
574.5
574.5
574.5
575
575
575
575
575.5
575
575
575.5
575.5
575.5
575
575.5
575.5
576
575.5
576
576.5
576
576
576.5
576.5
577
576.5
578
578.5
580.5
581.5
584.5
587.5
589.5
592.5
594.5
597.5
597.5
598.5
598
597.5
595
592.5
589.5
586.5
583.5
580
578.5
577
576
575
575
575
574.5
574.5
574.5
575.5
575
575
575
575
574.5
574
577
580
590
601.5
620
640
655.5
671
673.5
672
657
638
617.5
597
583
570.5
566.5
564
564
564.5
565
566.5
566
566.5
566.5
567.5
567
567
567.5
568
568
568
568.5
569
569
569
569.5
570
570.5
570.5
572.5
574.5
577
579.5
584.5
588.5
593.5
597.5
603
607.5
612
615.5
619.5
622.5
624.5
626
627
628.5
627.5
627
625.5
623.5
620
616
612
607.5
602
595.5
590
584
578
572
568
564
561
558
557
556
555.5
555
556
556.5
556.5
556.5
557
557.5
558
557.5
558.5
558.5
559
559
559.5
560
559.5
559
559
559
558
557.5
557.5
558
557.5
558.5
559
560
560.5
561
562
562.5
562
562.5
563
564
563.5
564
564.5
565
565.5
565.5
566.5
567
566.5
567
567.5
567.5
567.5
567.5
568
568.5
568.5
568.5
569.5
570
570
571
572
572.5
573
573.5
574
574
574
574
574.5
574
574
574.5
574.5
574.5
574.5
574.5
575.5
575
575.5
575.5
576
576
575.5
576
576
576
576
576.5
577.5
578
579
581
583.5
585.5
588.5
591
594
595.5
596.5
597
597
595.5
593.5
591.5
589
585.5
582.5
580
578.5
576.5
575.5
575
575.5
575
575
575.5
575.5
576
575.5
576
576
575
574
575
576
582
590
606.5
624.5
644
662.5
672.5
677.5
668
653.5
632.5
611.5
593
577.5
570
565
564.5
563.5
565
565.5
565.5
565.5
565.5
566.5
566
566.5
567
567.5
567.5
567.5
567.5
568.5
568
568
568.5
569
569
569
570.5
571.5
574
575.5
580
584
588.5
593
598
603.5
607
611.5
615
619
621
623.5
624.5
626.5
626
626
625
624.5
621
618.5
614.5
611
605.5
600
594.5
589
583
576.5
572
567
563.5
560
559
557.5
557
556
556.5
557
557
557
557.5
558
558
558
559
559.5
560
559.5
560.5
560.5
561
560.5
561.5
562
562
562
562.5
563
563
563
563.5
564
564
564
564.5
564.5
564
563.5
563.5
563.5
563
563
563.5
564
564
564
565
565.5
565.5
566
567
567.5
567.5
568
568.5
569
569
569
570
570
570.5
570.5
571.5
571.5
571.5
571
571.5
571.5
571
571.5
572
572.5
573
573
574.5
574
574.5
575
575
575.5
575
575.5
576
576
576
576
576.5
576
576.5
576.5
577.5
577.5
578
579.5
581
583
585
588
590.5
592.5
594
595
596
595
594
592
590.5
587
584.5
582
580
578.5
576.5
576.5
575.5
575.5
574.5
575.5
575
575.5
575
575.5
576
575
574.5
574.5
575
578
583
595.5
610
629
648
663
674
670.5
663
644.5
626
606
588.5
578
569.5
567.5
565
566
567
567
567.5
568
568.5
568.5
568.5
568.5
569.5
569
569
569.5
569.5
569.5
569
569.5
569.5
569.5
569
570
571
572.5
574
577.5
580.5
584.5
588
593
598
602
606
610
614
616.5
619
621
623
623.5
623.5
623.5
623
621
618.5
616
612.5
608
603
598
593
586.5
580.5
575
570
566
561.5
560
558
557
556
556.5
557
557
557.5
558
559
559
559
559.5
560
560
559.5
560.5
560.5
561
560.5
561.5
561.5
562
561.5
562.5
563
563
563
563.5
564
564
564
564.5
565
565
565
565.5
566
566
565.5
566.5
566.5
567
566.5
567.5
567.5
567.5
567.5
568
568
568
567.5
568.5
568.5
568.5
568.5
569
569.5
569.5
569.5
570.5
570.5
570.5
570.5
571
571.5
571.5
571.5
572.5
572.5
572.5
572.5
573
573.5
573
573.5
574
574.5
574.5
575
575.5
576
576
576.5
577
577.5
577
577.5
577.5
577.5
577.5
578.5
579.5
581.5
583.5
586
589.5
591.5
594
595.5
597
596
595.5
593.5
591.5
588.5
585.5
583
581
579
577
576.5
575.5
575.5
574.5
575
575
575
574.5
575.5
575.5
575.5
575
575
575
576
578.5
587
596.5
612.5
629
646.5
662
666.5
668
656.5
643.5
624.5
605.5
591
578.5
572
567
566
566.5
566.5
567
567.5
568
568
568
568.5
568.5
568.5
568
568.5
569
569
568.5
569.5
569.5
570
569.5
570.5
571
572
573
575.5
578
581
584.5
589
594
598
602
606
610.5
613
616
618.5
621
622
623
623
623.5
621.5
620
618
615.5
611.5
607.5
602.5
598.5
592
586.5
581
576
571
566.5
563.5
561
559.5
558
558
558.5
558
558
558.5
559
558.5
558.5
558.5
559
558.5
558.5
558.5
559
559
559
559.5
560.5
560.5
560.5
561.5
562
562
562
563
563.5
564
564
564.5
565
565
565
565.5
566
566
565.5
566.5
566.5
567
566.5
567.5
568
568
568
568.5
569
569
569
569.5
569.5
569.5
569.5
570
571
570.5
570.5
570.5
571
570.5
570.5
571
571
571.5
571
572.5
572.5
573
573
574
574.5
574.5
574.5
575
575
574.5
574.5
574.5
575
574.5
574.5
575.5
575.5
575.5
576
576.5
577.5
578
579.5
582
584.5
588
591.5
596
600
603.5
606.5
608.5
609
608
606
603.5
599.5
594.5
590.5
586
583
579.5
578
577
576
575.5
575.5
575.5
575.5
575.5
575.5
576
575.5
575
575
574.5
574.5
575
579.5
585.5
596.5
611
628.5
647.5
659.5
670.5
669.5
663.5
648.5
628.5
610
592
580
571
567
566.5
566.5
567
567.5
568
568
568
568.5
569
568.5
568.5
568.5
569
569
568.5
569.5
569.5
569.5
569.5
570
570.5
571.5
571.5
574
576
578.5
581.5
585
589.5
593
597
601
605.5
608
611.5
614
617
618
619.5
620
621
620
619
617.5
615.5
612.5
608.5
605
601
595.5
590
585
579.5
574.5
569
566
562.5
561
558.5
559
558.5
558.5
558
558.5
559
559
559
559.5
560
560
560
560.5
561
561
561
561.5
562
562
561.5
562.5
562.5
562.5
562.5
563
564
564
564
564.5
565
565
565
565.5
566.5
566
566.5
567
567.5
568
567.5
568.5
568.5
568.5
568
568.5
569
569
569
569.5
569.5
569.5
569
569.5
570
569.5
569.5
570
570.5
571
571
571.5
572.5
572.5
572.5
573.5
574
574
574
574.5
575
575
575
575.5
576
576
576.5
577
578
578
578
579
579
578.5
578.5
578.5
579
579
579.5
581.5
583
586
589.5
595
600.5
606
611
615.5
619
619.5
619.5
618
614.5
610
604.5
599.5
594
588.5
584
581
578.5
576.5
575.5
575.5
575.5
575
575.5
575.5
575.5
575.5
575
575.5
574.5
575
577
580
587
598
614
633.5
651
667.5
676.5
676
666
647.5
626.5
606
589
576.5
569.5
567
567.5
567.5
568.5
569.5
569
569.5
569.5
570
570
570
570.5
571
570.5
570.5
570.5
571
571
570.5
571
571
571.5
571.5
573
574.5
576
578
581.5
585
589
592.5
597
601
604
607.5
610
613.5
614.5
616.5
617.5
618.5
618
617.5
616
615.5
612.5
609.5
606.5
602.5
598
593
588
583.5
578
572.5
569
565
562.5
560
559.5
559
558.5
558
558.5
558.5
558.5
558.5
559
560
560
560
560.5
561
561
561
562
562.5
563
562.5
563.5
564
564
564
564.5
565
565
565
565.5
566
566
566
566.5
567.5
567
567
567.5
567.5
567.5
567
567.5
568
568
568
568.5
569
569
568.5
569.5
569.5
569.5
569.5
569.5
570.5
570
570.5
571
571.5
571.5
571
572
572.5
573
572.5
573.5
573.5
573.5
573.5
573.5
574.5
574
574
574.5
574.5
574.5
574
574.5
574.5
574.5
574
574.5
574.5
574.5
574
574.5
575
575
575
576.5
578
580
583
587.5
592.5
597.5
603
608
613
615
617.5
617.5
616.5
613.5
608.5
604.5
598.5
592.5
587
583
579.5
577.5
575.5
575.5
575
575
575
575.5
576
575
575.5
575
574.5
573.5
573
574
576.5
584.5
598
617
637.5
658
673.5
679.5
675.5
660.5
640
618
598
582.5
572.5
568.5
567.5
567.5
568
569
569
569
569.5
569.5
569.5
569.5
569.5
570
570
569.5
570
570.5
570
570
570.5
570.5
571
570.5
572
572.5
574.5
575.5
578.5
581.5
584.5
588
591.5
595.5
598
601.5
604.5
607.5
609.5
611
613
614.5
615
615
614.5
614
612
609.5
607.5
604.5
600.5
596.5
592
587.5
582.5
577
573
569
566
563
562
561
560.5
